
Integration time [ms]:   0.100
Averaging Nr. [scans]: 1000
Smoothing Nr. [pixels]: 0
Data measured with spectrometer [name]: 7213323SP
Wave   ;Sample   ;Dark     ;Reference;Scope Corrected for Dark
[nm]   ;[counts] ;[counts] ;[counts] ;[counts] 

 175.65;  183.288;  185.783;  180.414;-2.49486
 176.25;  203.392;  205.927;  201.051;-2.53469
 176.85;  199.964;  202.683;  197.041;-2.71967
 177.45;  201.179;  203.508;  199.894;-2.32910
 178.05;  191.580;  193.685;  190.085;-2.10504
 178.65;  190.083;  193.947;  189.195;-3.86365
 179.25;  186.878;  189.491;  186.282;-2.61297
 179.85;  194.002;  197.291;  191.669;-3.28920
 180.45;  184.769;  188.606;  185.031;-3.83733
 181.05;  227.681;  231.340;  226.588;-3.65906
 181.65;  189.247;  192.091;  188.083;-2.84368
 182.25;  209.503;  211.949;  206.883;-2.44581
 182.86;  204.281;  207.996;  202.121;-3.71432
 183.46;  202.820;  206.147;  200.708;-3.32655
 184.06;  186.136;  189.341;  185.033;-3.20561
 184.66;  166.813;  169.990;  164.643;-3.17703
 185.26;  209.350;  213.061;  214.998;-3.71106
 185.86;  190.611;  193.960;  191.880;-3.34960
 186.46;  210.961;  214.994;  211.614;-4.03387
 187.06;  194.359;  196.902;  194.406;-2.54292
 187.66;  216.699;  219.094;  216.525;-2.39460
 188.26;  221.128;  223.645;  220.940;-2.51650
 188.86;  200.652;  202.311;  200.640;-1.65824
 189.46;  196.793;  199.956;  198.052;-3.16326
 190.06;  187.677;  190.583;  188.358;-2.90611
 190.66;  193.121;  196.091;  194.493;-2.97085
 191.26;  211.888;  214.076;  212.779;-2.18813
 191.86;  208.346;  210.199;  207.622;-1.85340
 192.46;  206.910;  209.408;  206.770;-2.49814
 193.06;  208.234;  210.877;  207.841;-2.64296
 193.66;  197.226;  200.410;  199.942;-3.18398
 194.26;  213.652;  217.694;  218.472;-4.04231
 194.86;  183.290;  184.639;  184.097;-1.34868
 195.46;  189.002;  191.975;  189.176;-2.97256
 196.06;  202.035;  205.195;  202.533;-3.15999
 196.66;  180.702;  183.302;  181.286;-2.60028
 197.26;  180.461;  182.502;  180.080;-2.04152
 197.86;  209.812;  212.390;  210.197;-2.57781
 198.46;  179.135;  180.583;  179.072;-1.44759
 199.06;  205.034;  209.579;  206.441;-4.54525
 199.66;  193.946;  197.179;  194.867;-3.23324
 200.26;  184.220;  186.929;  185.670;-2.70824
 200.85;  202.205;  204.678;  202.080;-2.47329
 201.45;  192.793;  196.412;  195.434;-3.61838
 202.05;  195.264;  197.534;  195.645;-2.27020
 202.65;  188.996;  193.343;  189.896;-4.34739
 203.25;  180.542;  182.811;  181.206;-2.26909
 203.85;  194.563;  197.717;  195.949;-3.15364
 204.45;  224.051;  226.232;  226.293;-2.18130
 205.05;  169.280;  172.215;  170.599;-2.93499
 205.65;  175.967;  180.256;  177.581;-4.28897
 206.25;  203.167;  206.201;  205.331;-3.03395
 206.85;  182.672;  186.155;  183.435;-3.48288
 207.45;  189.770;  193.446;  191.637;-3.67636
 208.05;  178.063;  182.052;  180.242;-3.98897
 208.65;  181.373;  183.924;  182.976;-2.55185
 209.25;  174.956;  177.281;  174.426;-2.32578
 209.84;  202.739;  204.778;  203.273;-2.03870
 210.44;  183.391;  185.831;  184.524;-2.44006
 211.04;  217.739;  220.826;  219.523;-3.08730
 211.64;  183.998;  186.519;  184.227;-2.52101
 212.24;  195.483;  197.061;  196.408;-1.57856
 212.84;  188.970;  192.686;  191.061;-3.71558
 213.44;  176.685;  179.742;  179.735;-3.05680
 214.04;  175.827;  179.422;  178.889;-3.59555
 214.64;  193.865;  196.010;  196.183;-2.14480
 215.24;  173.670;  176.617;  175.860;-2.94678
 215.83;  194.298;  197.577;  195.308;-3.27868
 216.43;  162.229;  165.306;  164.475;-3.07749
 217.03;  171.015;  173.213;  173.835;-2.19798
 217.63;  175.144;  178.375;  178.008;-3.23120
 218.23;  184.359;  188.109;  187.688;-3.74980
 218.83;  176.929;  179.774;  179.547;-2.84549
 219.43;  173.446;  176.967;  177.218;-3.52165
 220.03;  166.237;  169.902;  168.913;-3.66430
 220.62;  171.532;  174.413;  174.999;-2.88114
 221.22;  183.133;  184.038;  185.496;-0.90524
 221.82;  186.682;  189.802;  189.660;-3.11955
 222.42;  164.816;  167.270;  168.935;-2.45318
 223.02;  178.688;  181.217;  182.327;-2.52904
 223.62;  168.957;  171.654;  175.421;-2.69696
 224.22;  189.806;  191.896;  195.708;-2.09074
 224.81;  183.322;  185.750;  190.209;-2.42825
 225.41;  181.469;  185.009;  189.807;-3.54008
 226.01;  167.031;  170.181;  175.050;-3.14991
 226.61;  170.094;  172.916;  178.854;-2.82219
 227.21;  169.763;  173.765;  178.313;-4.00243
 227.81;  195.532;  198.744;  205.112;-3.21263
 228.40;  163.291;  166.154;  172.708;-2.86315
 229.00;  171.281;  173.395;  181.048;-2.11397
 229.60;  173.257;  176.512;  183.766;-3.25535
 230.20;  199.119;  201.884;  211.512;-2.76530
 230.80;  159.358;  163.338;  172.378;-3.98014
 231.39;  156.952;  160.293;  169.722;-3.34156
 231.99;  175.304;  178.183;  189.251;-2.87938
 232.59;  202.108;  204.573;  217.599;-2.46469
 233.19;  171.587;  173.410;  188.513;-1.82312
 233.79;  184.212;  186.319;  202.434;-2.10775
 234.38;  170.078;  172.812;  190.099;-2.73463
 234.98;  174.632;  178.647;  196.074;-4.01507
 235.58;  178.739;  181.406;  201.586;-2.66727
 236.18;  190.541;  193.264;  212.456;-2.72243
 236.78;  178.578;  182.090;  202.247;-3.51125
 237.37;  190.907;  191.811;  218.441;-0.90348
 237.97;  193.630;  197.556;  224.600;-3.92620
 238.57;  195.564;  198.851;  226.967;-3.28684
 239.17;  165.849;  168.430;  198.792;-2.58089
 239.76;  184.462;  187.085;  220.862;-2.62290
 240.36;  174.122;  176.163;  212.675;-2.04181
 240.96;  202.451;  204.218;  243.349;-1.76733
 241.56;  170.277;  173.281;  211.808;-3.00375
 242.15;  177.898;  179.736;  223.065;-1.83771
 242.75;  195.980;  198.403;  246.418;-2.42262
 243.35;  173.716;  177.349;  226.927;-3.63338
 243.95;  184.043;  186.928;  243.754;-2.88484
 244.54;  197.649;  201.186;  259.178;-3.53691
 245.14;  191.801;  194.469;  258.872;-2.66787
 245.74;  209.241;  212.340;  280.750;-3.09907
 246.34;  180.691;  183.537;  260.989;-2.84629
 246.93;  195.766;  197.063;  283.881;-1.29708
 247.53;  150.083;  153.235;  263.537;-3.15156
 248.13;  190.856;  193.395;  330.762;-2.53871
 248.73;  180.046;  181.770;  312.884;-1.72375
 249.32;  183.258;  185.280;  307.340;-2.02156
 249.92;  172.883;  175.296;  313.021;-2.41245
 250.52;  189.592;  191.298;  364.988;-1.70627
 251.11;  189.931;  192.564;  413.921;-2.63308
 251.71;  205.688;  207.719;  535.383;-2.03052
 252.31;  164.214;  163.680; 1116.602; 0.53447
 252.91;  237.438;  187.361;12306.623;50.07611
 253.50;  369.442;  154.812;38070.578;214.62946
 254.10;  420.678;  198.001;33115.004;222.67744
 254.70;  218.366;  166.640; 7397.543;51.72594
 255.29;  202.542;  201.462;  779.898; 1.07977
 255.89;  183.863;  184.944;  427.893;-1.08165
 256.49;  166.191;  168.140;  337.986;-1.94889
 257.08;  171.633;  174.424;  312.391;-2.79079
 257.68;  188.148;  190.194;  307.577;-2.04596
 258.28;  184.785;  187.081;  290.710;-2.29605
 258.87;  190.270;  191.826;  281.589;-1.55573
 259.47;  174.376;  177.615;  256.904;-3.23840
 260.07;  182.003;  184.430;  258.984;-2.42731
 260.66;  158.185;  160.137;  230.508;-1.95273
 261.26;  206.787;  209.045;  273.389;-2.25840
 261.86;  198.542;  200.756;  260.153;-2.21401
 262.45;  173.517;  176.279;  231.401;-2.76140
 263.05;  173.979;  176.522;  230.199;-2.54282
 263.65;  176.924;  178.642;  226.449;-1.71813
 264.24;  191.295;  193.555;  241.350;-2.26029
 264.84;  205.117;  205.161;  281.498;-0.04431
 265.44;  184.054;  182.325;  273.867; 1.72923
 266.03;  178.488;  177.647;  231.179; 0.84027
 266.63;  165.162;  167.718;  197.785;-2.55613
 267.23;  182.296;  185.031;  211.605;-2.73503
 267.82;  161.237;  164.037;  187.883;-2.79997
 268.42;  170.222;  172.003;  194.649;-1.78040
 269.01;  170.027;  172.399;  194.558;-2.37212
 269.61;  179.099;  181.283;  204.840;-2.18429
 270.21;  182.525;  185.189;  207.045;-2.66366
 270.80;  201.366;  202.637;  224.414;-1.27161
 271.40;  163.372;  165.255;  183.775;-1.88363
 271.99;  199.029;  200.379;  218.373;-1.34998
 272.59;  154.795;  157.284;  177.199;-2.48933
 273.19;  165.896;  168.338;  186.254;-2.44161
 273.78;  153.802;  156.316;  175.177;-2.51442
 274.38;  169.363;  170.500;  193.021;-1.13704
 274.97;  180.005;  180.598;  212.682;-0.59285
 275.57;  180.425;  181.240;  215.124;-0.81516
 276.17;  152.155;  151.526;  175.473; 0.62892
 276.76;  178.871;  179.919;  200.892;-1.04812
 277.36;  174.976;  176.316;  195.657;-1.33976
 277.95;  181.368;  181.802;  202.104;-0.43439
 278.55;  164.598;  165.621;  183.571;-1.02304
 279.14;  182.351;  182.527;  204.050;-0.17624
 279.74;  181.647;  181.713;  211.006;-0.06570
 280.34;  167.805;  166.854;  207.562; 0.95066
 280.93;  205.800;  202.511;  243.101; 3.28948
 281.53;  163.216;  161.140;  204.471; 2.07659
 282.12;  188.160;  184.315;  242.247; 3.84556
 282.72;  180.675;  175.619;  237.668; 5.05613
 283.31;  186.080;  183.090;  225.194; 2.99029
 283.91;  163.626;  163.396;  189.204; 0.22920
 284.50;  188.805;  190.107;  209.412;-1.30245
 285.10;  201.153;  201.548;  220.160;-0.39531
 285.69;  161.530;  161.840;  181.279;-0.30933
 286.29;  186.973;  186.696;  205.333; 0.27700
 286.89;  176.021;  175.323;  193.509; 0.69844
 287.48;  180.929;  181.152;  198.821;-0.22321
 288.08;  196.140;  195.308;  213.941; 0.83195
 288.67;  179.200;  176.735;  211.533; 2.46440
 289.27;  184.324;  177.393;  238.460; 6.93061
 289.86;  181.189;  175.474;  224.048; 5.71497
 290.46;  162.326;  160.923;  182.953; 1.40322
 291.05;  175.323;  175.660;  190.854;-0.33710
 291.65;  169.927;  169.699;  186.464; 0.22804
 292.24;  195.657;  195.774;  217.061;-0.11717
 292.84;  180.547;  179.766;  198.640; 0.78058
 293.43;  185.075;  184.841;  201.754; 0.23377
 294.03;  182.773;  182.158;  197.677; 0.61493
 294.62;  189.102;  188.921;  205.562; 0.18023
 295.22;  170.324;  169.760;  187.902; 0.56400
 295.81;  185.144;  183.134;  227.659; 2.00994
 296.41;  231.222;  172.707;  618.639;58.51439
 297.00;  312.886;  187.888;  879.669;124.99838
 297.60;  240.340;  177.385;  448.744;62.95529
 298.19;  189.752;  182.774;  234.456; 6.97804
 298.78;  183.268;  178.714;  208.659; 4.55323
 299.38;  165.299;  165.210;  184.146; 0.08840
 299.97;  192.529;  192.233;  207.510; 0.29640
 300.57;  180.318;  179.790;  193.837; 0.52799
 301.16;  138.168;  137.570;  152.734; 0.59802
 301.76;  180.942;  175.571;  237.006; 5.37090
 302.35;  199.202;  178.039;  322.268;21.16331
 302.95;  215.413;  195.801;  300.113;19.61229
 303.54;  158.787;  154.947;  188.905; 3.84046
 304.14;  161.051;  159.794;  182.352; 1.25755
 304.73;  194.090;  192.017;  213.586; 2.07327
 305.32;  183.185;  182.304;  200.159; 0.88178
 305.92;  162.716;  161.694;  180.386; 1.02109
 306.51;  158.167;  158.503;  174.896;-0.33682
 307.11;  178.328;  177.229;  194.701; 1.09973
 307.70;  158.507;  156.496;  174.665; 2.01105
 308.29;  160.138;  159.940;  177.264; 0.19720
 308.89;  167.484;  167.440;  185.946; 0.04430
 309.48;  129.194;  128.932;  149.281; 0.26155
 310.08;  169.967;  168.493;  192.005; 1.47431
 310.67;  170.843;  168.955;  194.927; 1.88757
 311.27;  159.481;  153.804;  202.344; 5.67707
 311.86;  199.352;  160.259;  434.649;39.09262
 312.45;  348.128;  166.112; 1292.883;182.01642
 313.05;  559.651;  176.059; 2220.983;383.59241
 313.64;  547.562;  170.333; 1904.856;377.22952
 314.23;  332.854;  159.036;  905.625;173.81875
 314.83;  232.736;  183.457;  437.262;49.27902
 315.42;  186.421;  153.736;  324.042;32.68483
 316.02;  182.650;  157.548;  288.107;25.10229
 316.61;  168.843;  152.189;  258.543;16.65422
 317.20;  181.113;  165.999;  253.209;15.11402
 317.80;  170.518;  160.221;  232.493;10.29640
 318.39;  175.098;  163.795;  233.203;11.30308
 318.98;  201.513;  193.744;  247.328; 7.76860
 319.58;  176.150;  169.828;  216.003; 6.32162
 320.17;  175.288;  168.575;  213.990; 6.71223
 320.76;  174.817;  168.871;  212.286; 5.94637
 321.36;  172.866;  169.357;  202.238; 3.50964
 321.95;  170.452;  167.621;  195.718; 2.83109
 322.55;  189.405;  186.082;  213.062; 3.32316
 323.14;  156.301;  152.739;  181.970; 3.56229
 323.73;  158.136;  154.753;  184.904; 3.38353
 324.33;  178.656;  176.503;  201.519; 2.15306
 324.92;  172.386;  170.029;  192.560; 2.35728
 325.51;  169.624;  168.343;  187.946; 1.28113
 326.10;  163.371;  162.183;  181.914; 1.18713
 326.70;  175.600;  173.882;  193.516; 1.71796
 327.29;  169.241;  169.970;  187.224;-0.72901
 327.88;  165.794;  165.081;  182.818; 0.71225
 328.48;  178.688;  176.911;  198.026; 1.77697
 329.07;  183.359;  180.658;  199.266; 2.70078
 329.66;  173.310;  170.927;  189.404; 2.38329
 330.26;  176.111;  176.096;  192.723; 0.01546
 330.85;  181.118;  179.929;  195.784; 1.18859
 331.44;  176.018;  175.423;  189.246; 0.59538
 332.04;  177.262;  176.871;  189.683; 0.39162
 332.63;  165.003;  164.646;  174.903; 0.35752
 333.22;  176.690;  176.877;  195.090;-0.18790
 333.81;  188.772;  180.994;  235.574; 7.77827
 334.41;  192.823;  180.880;  249.291;11.94299
 335.00;  197.261;  190.775;  222.102; 6.48631
 335.59;  175.310;  175.896;  182.714;-0.58654
 336.18;  184.840;  186.918;  190.339;-2.07719
 336.78;  163.629;  165.381;  169.251;-1.75179
 337.37;  169.658;  171.039;  174.332;-1.38096
 337.96;  225.784;  227.172;  229.099;-1.38814
 338.55;  197.561;  198.467;  200.760;-0.90527
 339.15;  183.608;  185.489;  187.809;-1.88187
 339.74;  172.459;  174.451;  176.051;-1.99215
 340.33;  168.658;  171.198;  172.264;-2.53953
 340.92;  181.566;  183.361;  185.726;-1.79449
 341.52;  175.310;  177.029;  179.138;-1.71963
 342.11;  172.783;  174.246;  175.982;-1.46292
 342.70;  159.445;  160.769;  162.731;-1.32344
 343.29;  176.547;  179.040;  180.213;-2.49379
 343.89;  163.538;  164.528;  166.492;-0.98957
 344.48;  177.019;  177.707;  181.187;-0.68757
 345.07;  153.869;  155.616;  158.639;-1.74735
 345.66;  183.007;  184.240;  186.801;-1.23250
 346.25;  167.754;  169.051;  171.893;-1.29628
 346.85;  180.788;  181.558;  184.557;-0.77040
 347.44;  160.161;  160.356;  164.301;-0.19497
 348.03;  168.820;  169.905;  173.428;-1.08581
 348.62;  188.110;  188.520;  191.544;-0.41084
 349.21;  163.446;  165.562;  170.085;-2.11566
 349.81;  175.959;  177.349;  180.710;-1.39007
 350.40;  163.062;  164.108;  168.015;-1.04565
 350.99;  158.403;  159.635;  164.370;-1.23174
 351.58;  169.675;  168.959;  175.213; 0.71650
 352.17;  144.681;  144.645;  150.727; 0.03681
 352.77;  169.059;  167.961;  175.698; 1.09733
 353.36;  175.851;  177.249;  184.777;-1.39801
 353.95;  177.455;  175.374;  183.532; 2.08075
 354.54;  157.142;  156.091;  164.695; 1.05154
 355.13;  175.634;  174.712;  185.178; 0.92262
 355.72;  180.857;  179.625;  189.178; 1.23147
 356.32;  169.490;  168.462;  179.394; 1.02832
 356.91;  188.972;  187.012;  198.581; 1.95956
 357.50;  173.348;  170.027;  181.332; 3.32129
 358.09;  167.531;  164.519;  175.948; 3.01146
 358.68;  172.194;  168.653;  182.453; 3.54105
 359.27;  181.254;  179.216;  193.575; 2.03725
 359.86;  189.104;  185.506;  201.175; 3.59809
 360.46;  161.115;  157.654;  174.085; 3.46035
 361.05;  177.426;  172.518;  190.340; 4.90757
 361.64;  172.242;  167.374;  185.086; 4.86829
 362.23;  176.217;  171.842;  194.651; 4.37508
 362.82;  171.816;  163.839;  192.502; 7.97622
 363.41;  178.950;  168.397;  207.875;10.55357
 364.00;  214.445;  176.951;  353.780;37.49318
 364.59;  508.863;  183.844; 1486.313;325.01941
 365.19;  899.944;  162.882; 2522.935;737.06238
 365.78;  706.682;  182.214; 1660.725;524.46840
 366.37;  350.251;  167.548;  731.492;182.70250
 366.96;  249.602;  169.481;  397.552;80.12110
 367.55;  202.772;  181.778;  244.913;20.99380
 368.14;  191.269;  178.387;  214.336;12.88221
 368.73;  194.818;  186.299;  218.072; 8.51897
 369.32;  198.402;  188.947;  217.455; 9.45543
 369.91;  191.214;  182.764;  209.941; 8.45008
 370.50;  200.921;  191.469;  219.302; 9.45114
 371.09;  184.033;  175.202;  202.742; 8.83179
 371.69;  179.069;  169.328;  198.902; 9.74122
 372.28;  174.841;  165.466;  193.164; 9.37453
 372.87;  209.373;  198.819;  229.204;10.55444
 373.46;  178.439;  166.853;  198.627;11.58640
 374.05;  197.940;  186.768;  218.578;11.17119
 374.64;  198.653;  185.885;  220.031;12.76853
 375.23;  190.574;  176.637;  210.680;13.93753
 375.82;  208.894;  195.424;  231.757;13.47037
 376.41;  205.985;  191.792;  227.311;14.19344
 377.00;  204.074;  189.710;  229.443;14.36406
 377.59;  197.037;  181.360;  220.777;15.67731
 378.18;  199.147;  181.502;  222.855;17.64495
 378.77;  197.732;  180.446;  221.661;17.28594
 379.36;  188.536;  171.454;  215.856;17.08210
 379.95;  208.623;  190.633;  236.560;17.99025
 380.54;  204.271;  184.731;  233.047;19.53988
 381.13;  217.526;  198.054;  245.947;19.47143
 381.72;  186.449;  165.850;  217.145;20.59929
 382.31;  221.137;  198.959;  250.810;22.17828
 382.90;  202.590;  181.443;  235.621;21.14734
 383.49;  249.860;  227.234;  281.132;22.62583
 384.08;  191.718;  169.673;  226.846;22.04541
 384.67;  218.129;  196.054;  252.682;22.07476
 385.26;  214.964;  189.966;  250.489;24.99775
 385.85;  200.619;  173.409;  233.966;27.20971
 386.44;  213.957;  187.634;  250.247;26.32267
 387.03;  223.424;  197.421;  264.478;26.00369
 387.62;  190.173;  163.338;  228.198;26.83547
 388.21;  224.034;  196.186;  263.020;27.84786
 388.80;  206.897;  178.007;  246.997;28.88915
 389.39;  211.489;  181.558;  253.348;29.93100
 389.98;  212.030;  181.266;  255.753;30.76408
 390.57;  212.248;  179.164;  255.437;33.08414
 391.16;  218.589;  186.709;  261.714;31.88011
 391.75;  227.581;  196.106;  269.716;31.47530
 392.34;  228.996;  196.263;  270.151;32.73317
 392.93;  224.027;  191.339;  268.909;32.68873
 393.52;  200.495;  166.840;  245.097;33.65439
 394.11;  205.357;  171.515;  250.044;33.84209
 394.70;  243.686;  210.391;  289.266;33.29482
 395.29;  224.467;  191.029;  271.052;33.43833
 395.88;  211.163;  178.836;  257.652;32.32618
 396.47;  229.307;  194.161;  273.788;35.14571
 397.05;  214.194;  178.850;  258.016;35.34376
 397.64;  226.809;  191.695;  272.155;35.11415
 398.23;  218.412;  183.469;  265.215;34.94291
 398.82;  220.042;  185.793;  265.767;34.24891
 399.41;  210.304;  175.624;  255.098;34.67957
 400.00;  207.640;  172.349;  252.393;35.29120
 400.59;  227.549;  193.132;  273.690;34.41720
 401.18;  221.215;  186.235;  269.091;34.98018
 401.77;  214.956;  180.529;  262.585;34.42749
 402.36;  229.870;  194.073;  281.319;35.79665
 402.95;  216.444;  176.865;  273.673;39.57892
 403.53;  252.822;  193.473;  388.007;59.34848
 404.12;  517.870;  179.919; 1465.115;337.95123
 404.71;  960.198;  177.698; 2583.144;782.50066
 405.30;  695.812;  158.448; 1466.161;537.36413
 405.89;  281.862;  172.611;  421.434;109.25133
 406.48;  237.932;  194.565;  292.922;43.36709
 407.07;  208.227;  166.267;  287.548;41.95908
 407.66;  260.962;  189.535;  386.657;71.42713
 408.24;  257.363;  190.223;  354.475;67.13966
 408.83;  229.586;  192.720;  276.672;36.86637
 409.42;  196.783;  167.033;  233.595;29.75003
 410.01;  210.709;  182.853;  246.646;27.85656
 410.60;  220.498;  193.582;  254.574;26.91607
 411.19;  189.993;  162.868;  222.268;27.12473
 411.78;  188.791;  164.580;  221.798;24.21129
 412.36;  193.473;  169.760;  225.619;23.71285
 412.95;  200.420;  177.768;  232.970;22.65250
 413.54;  224.085;  200.262;  253.428;23.82291
 414.13;  214.657;  190.969;  245.348;23.68739
 414.72;  196.318;  174.563;  226.540;21.75568
 415.31;  198.828;  175.308;  228.778;23.52000
 415.89;  179.951;  156.787;  208.684;23.16348
 416.48;  196.114;  176.500;  225.226;19.61396
 417.07;  186.801;  167.929;  214.352;18.87205
 417.66;  218.168;  197.499;  243.116;20.66885
 418.25;  201.591;  182.567;  226.683;19.02441
 418.83;  197.334;  178.673;  222.017;18.66035
 419.42;  201.669;  182.859;  226.599;18.81000
 420.01;  203.515;  185.601;  228.959;17.91371
 420.60;  201.471;  183.877;  225.851;17.59390
 421.19;  224.600;  207.381;  246.419;17.21877
 421.77;  178.703;  163.362;  202.087;15.34027
 422.36;  208.910;  192.702;  230.957;16.20831
 422.95;  197.060;  181.905;  218.066;15.15525
 423.54;  214.735;  199.674;  236.024;15.06074
 424.12;  204.219;  191.729;  225.095;12.49075
 424.71;  204.167;  191.024;  224.132;13.14319
 425.30;  209.892;  195.949;  231.290;13.94277
 425.89;  207.841;  194.640;  228.544;13.20063
 426.48;  199.069;  187.742;  220.262;11.32667
 427.06;  193.460;  180.325;  212.383;13.13543
 427.65;  206.489;  194.373;  225.779;12.11598
 428.24;  185.874;  173.882;  202.939;11.99189
 428.83;  195.213;  182.524;  213.653;12.68973
 429.41;  206.077;  195.650;  224.759;10.42710
 430.00;  194.958;  182.279;  211.652;12.67928
 430.59;  226.112;  215.774;  246.183;10.33875
 431.17;  210.322;  197.939;  229.574;12.38263
 431.76;  210.676;  198.877;  230.916;11.79910
 432.35;  221.497;  207.590;  241.614;13.90658
 432.94;  217.616;  203.248;  244.729;14.36770
 433.52;  219.491;  200.767;  258.083;18.72326
 434.11;  235.236;  207.894;  298.172;27.34156
 434.70;  270.139;  198.296;  485.671;71.84210
 435.29;  875.344;  212.896; 2805.055;662.44829
 435.87; 1793.325;  206.719; 5150.592;1586.60631
 436.46; 1239.828;  210.740; 2722.762;1029.08867
 437.05;  332.837;  183.603;  540.545;149.23468
 437.63;  227.985;  201.332;  274.666;26.65280
 438.22;  221.659;  203.832;  248.964;17.82770
 438.81;  230.038;  216.074;  253.576;13.96403
 439.39;  199.753;  190.341;  219.764; 9.41184
 439.98;  215.417;  206.514;  232.521; 8.90328
 440.57;  209.549;  201.749;  225.617; 7.79963
 441.15;  204.681;  197.083;  219.055; 7.59714
 441.74;  209.645;  203.234;  220.966; 6.41144
 442.33;  216.113;  210.182;  227.628; 5.93153
 442.91;  210.406;  204.665;  222.203; 5.74146
 443.50;  200.986;  195.081;  212.909; 5.90495
 444.09;  192.262;  187.318;  202.260; 4.94395
 444.67;  225.903;  220.137;  236.318; 5.76653
 445.26;  203.967;  200.047;  213.821; 3.92077
 445.85;  218.848;  213.759;  229.093; 5.08895
 446.43;  202.274;  197.378;  213.253; 4.89608
 447.02;  203.060;  199.195;  213.971; 3.86540
 447.61;  184.656;  180.285;  193.601; 4.37063
 448.19;  208.744;  205.617;  218.236; 3.12638
 448.78;  200.299;  196.885;  208.027; 3.41404
 449.36;  205.559;  200.522;  212.489; 5.03613
 449.95;  196.939;  194.136;  205.296; 2.80329
 450.54;  193.946;  190.992;  202.068; 2.95443
 451.12;  215.904;  213.227;  224.440; 2.67696
 451.71;  182.183;  178.246;  190.035; 3.93625
 452.30;  207.116;  203.933;  214.755; 3.18218
 452.88;  197.054;  193.927;  204.263; 3.12762
 453.47;  181.086;  178.301;  188.234; 2.78553
 454.05;  189.260;  187.381;  198.324; 1.87883
 454.64;  201.795;  198.638;  209.186; 3.15732
 455.22;  215.770;  213.190;  222.695; 2.57950
 455.81;  180.197;  177.234;  186.806; 2.96266
 456.40;  215.958;  213.844;  221.415; 2.11419
 456.98;  189.841;  187.286;  196.557; 2.55433
 457.57;  207.441;  205.449;  214.096; 1.99177
 458.15;  214.047;  212.635;  220.194; 1.41216
 458.74;  200.702;  197.409;  205.667; 3.29295
 459.33;  204.803;  203.185;  211.567; 1.61791
 459.91;  205.134;  204.309;  209.606; 0.82555
 460.50;  203.547;  201.867;  210.124; 1.68064
 461.08;  196.049;  194.525;  201.549; 1.52318
 461.67;  198.643;  197.717;  203.915; 0.92540
 462.25;  203.496;  202.160;  208.184; 1.33643
 462.84;  172.991;  171.143;  177.443; 1.84782
 463.42;  191.655;  190.005;  197.335; 1.65016
 464.01;  193.393;  192.089;  200.154; 1.30435
 464.59;  205.866;  204.720;  209.773; 1.14639
 465.18;  192.071;  190.661;  196.631; 1.41006
 465.76;  197.655;  195.978;  202.098; 1.67741
 466.35;  196.510;  195.076;  202.134; 1.43401
 466.94;  206.824;  205.588;  211.128; 1.23583
 467.52;  216.723;  215.546;  220.402; 1.17686
 468.11;  180.840;  181.263;  185.451;-0.42296
 468.69;  175.947;  175.283;  178.777; 0.66397
 469.28;  166.157;  165.781;  169.570; 0.37672
 469.86;  201.592;  201.956;  204.795;-0.36474
 470.45;  195.936;  195.976;  198.769;-0.03965
 471.03;  176.475;  176.987;  179.928;-0.51250
 471.62;  188.128;  187.494;  189.847; 0.63418
 472.20;  191.314;  191.403;  194.726;-0.08827
 472.79;  226.706;  226.987;  228.835;-0.28114
 473.37;  189.550;  189.814;  192.908;-0.26358
 473.95;  188.794;  189.323;  192.703;-0.52843
 474.54;  147.316;  149.139;  152.162;-1.82222
 475.12;  214.183;  215.707;  218.210;-1.52460
 475.71;  195.575;  196.860;  199.441;-1.28492
 476.29;  199.181;  200.246;  203.200;-1.06475
 476.88;  175.904;  176.462;  178.540;-0.55818
 477.46;  176.486;  177.365;  179.356;-0.87957
 478.05;  183.625;  185.347;  186.478;-1.72216
 478.63;  187.191;  186.990;  191.034; 0.20142
 479.22;  169.325;  169.617;  170.278;-0.29216
 479.80;  193.358;  193.848;  195.363;-0.49015
 480.38;  188.481;  188.725;  191.085;-0.24448
 480.97;  172.308;  173.631;  174.897;-1.32273
 481.55;  184.164;  184.528;  186.205;-0.36412
 482.14;  205.055;  206.846;  207.401;-1.79095
 482.72;  179.327;  180.594;  182.124;-1.26627
 483.31;  176.870;  178.196;  177.897;-1.32580
 483.89;  180.000;  182.203;  182.403;-2.20333
 484.47;  180.165;  181.411;  182.354;-1.24579
 485.06;  169.865;  171.398;  172.672;-1.53322
 485.64;  194.117;  195.727;  195.664;-1.61059
 486.23;  199.230;  200.730;  200.398;-1.49992
 486.81;  193.757;  193.913;  194.241;-0.15573
 487.39;  162.265;  162.998;  164.354;-0.73277
 487.98;  175.517;  176.232;  176.507;-0.71448
 488.56;  205.257;  205.172;  205.349; 0.08504
 489.15;  174.975;  175.879;  176.203;-0.90430
 489.73;  178.000;  179.611;  179.606;-1.61128
 490.31;  177.888;  177.484;  179.772; 0.40441
 490.90;  177.349;  178.035;  182.159;-0.68599
 491.48;  183.752;  183.404;  192.437; 0.34776
 492.06;  196.084;  196.254;  201.679;-0.16981
 492.65;  165.807;  167.123;  168.469;-1.31630
 493.23;  153.759;  155.512;  155.351;-1.75295
 493.82;  187.086;  190.279;  188.929;-3.19345
 494.40;  153.205;  156.063;  154.592;-2.85837
 494.98;  172.447;  173.980;  173.304;-1.53281
 495.57;  152.356;  155.023;  154.804;-2.66625
 496.15;  150.501;  153.475;  152.224;-2.97398
 496.73;  163.876;  166.732;  165.567;-2.85549
 497.32;  185.886;  188.806;  185.987;-2.92035
 497.90;  183.562;  185.243;  184.261;-1.68133
 498.48;  160.779;  163.264;  161.229;-2.48477
 499.07;  165.500;  168.933;  167.574;-3.43238
 499.65;  184.410;  187.241;  185.883;-2.83181
 500.23;  150.583;  152.838;  150.126;-2.25497
 500.82;  162.094;  164.071;  163.825;-1.97662
 501.40;  165.179;  168.176;  166.053;-2.99626
 501.98;  178.351;  180.379;  178.435;-2.02746
 502.56;  192.253;  193.014;  192.690;-0.76174
 503.15;  191.313;  193.763;  191.639;-2.45079
 503.73;  174.299;  176.916;  175.410;-2.61631
 504.31;  177.440;  179.871;  178.659;-2.43193
 504.90;  185.372;  187.818;  186.738;-2.44678
 505.48;  198.253;  201.702;  199.199;-3.44913
 506.06;  182.886;  186.348;  184.710;-3.46178
 506.64;  169.191;  172.437;  170.026;-3.24643
 507.23;  176.216;  178.225;  176.401;-2.00838
 507.81;  186.351;  189.522;  188.977;-3.17054
 508.39;  175.819;  177.726;  176.174;-1.90749
 508.97;  183.940;  185.371;  185.047;-1.43180
 509.56;  193.900;  195.905;  194.375;-2.00528
 510.14;  160.021;  163.341;  161.241;-3.32018
 510.72;  176.552;  179.200;  177.478;-2.64816
 511.30;  186.274;  189.355;  186.041;-3.08122
 511.89;  183.766;  187.260;  185.565;-3.49338
 512.47;  180.465;  182.290;  181.031;-1.82575
 513.05;  175.893;  178.056;  177.585;-2.16393
 513.63;  176.509;  179.262;  177.868;-2.75292
 514.22;  189.462;  190.671;  189.266;-1.20937
 514.80;  187.044;  189.987;  188.139;-2.94385
 515.38;  177.497;  180.929;  179.039;-3.43128
 515.96;  200.047;  201.970;  200.259;-1.92359
 516.55;  173.526;  174.993;  172.391;-1.46747
 517.13;  182.769;  185.281;  186.021;-2.51191
 517.71;  167.960;  170.696;  169.247;-2.73601
 518.29;  169.047;  170.994;  170.914;-1.94768
 518.87;  180.916;  182.773;  182.674;-1.85651
 519.46;  173.372;  176.196;  174.753;-2.82428
 520.04;  176.816;  177.299;  177.625;-0.48307
 520.62;  166.984;  168.520;  166.467;-1.53570
 521.20;  163.095;  165.834;  162.686;-2.73850
 521.78;  179.398;  181.708;  180.553;-2.30937
 522.36;  174.814;  177.525;  175.982;-2.71116
 522.95;  175.644;  177.350;  177.197;-1.70574
 523.53;  162.500;  165.613;  164.834;-3.11250
 524.11;  174.991;  176.984;  176.760;-1.99325
 524.69;  169.364;  171.661;  170.408;-2.29743
 525.27;  171.872;  173.930;  173.546;-2.05834
 525.85;  181.917;  184.072;  182.985;-2.15479
 526.44;  182.028;  184.689;  182.487;-2.66078
 527.02;  190.964;  192.458;  192.145;-1.49396
 527.60;  184.350;  186.713;  184.817;-2.36246
 528.18;  166.583;  167.457;  168.352;-0.87365
 528.76;  196.038;  196.792;  197.754;-0.75342
 529.34;  181.199;  183.260;  182.904;-2.06094
 529.92;  197.802;  200.420;  199.070;-2.61720
 530.51;  187.632;  189.152;  189.082;-1.51993
 531.09;  179.270;  180.154;  180.559;-0.88415
 531.67;  173.782;  176.171;  176.286;-2.38991
 532.25;  196.270;  197.521;  198.863;-1.25060
 532.83;  197.330;  197.957;  200.968;-0.62652
 533.41;  171.929;  173.583;  175.342;-1.65403
 533.99;  197.690;  198.349;  200.241;-0.65986
 534.57;  216.109;  217.315;  219.337;-1.20651
 535.15;  178.338;  179.558;  181.714;-1.22041
 535.74;  174.104;  173.355;  177.698; 0.74967
 536.32;  179.410;  180.199;  183.533;-0.78919
 536.90;  170.743;  171.801;  173.158;-1.05801
 537.48;  184.824;  186.379;  186.764;-1.55432
 538.06;  202.704;  204.270;  204.852;-1.56590
 538.64;  189.593;  188.959;  193.302; 0.63451
 539.22;  181.153;  181.431;  184.206;-0.27856
 539.80;  186.205;  187.023;  190.142;-0.81818
 540.38;  201.812;  202.015;  205.750;-0.20295
 540.96;  171.264;  172.174;  176.155;-0.90981
 541.54;  178.346;  177.715;  183.672; 0.63020
 542.12;  222.922;  221.327;  228.946; 1.59494
 542.70;  169.967;  167.198;  178.319; 2.76863
 543.28;  189.654;  185.638;  202.682; 4.01649
 543.86;  186.937;  179.558;  204.103; 7.37919
 544.44;  245.201;  229.764;  278.849;15.43657
 545.02;  276.032;  197.806;  518.343;78.22568
 545.61; 1230.496;  187.133; 3429.565;1043.36303
 546.19; 1952.942;  191.494; 4874.079;1761.44802
 546.77;  895.983;  184.926; 1764.281;711.05674
 547.35;  289.010;  216.969;  398.729;72.04101
 547.93;  210.439;  192.583;  238.837;17.85652
 548.51;  202.604;  195.648;  217.970; 6.95673
 549.09;  207.277;  204.032;  218.477; 3.24415
 549.67;  204.758;  203.150;  211.654; 1.60801
 550.25;  186.005;  185.505;  191.700; 0.50027
 550.83;  208.327;  208.767;  213.583;-0.43999
 551.41;  195.746;  195.331;  198.861; 0.41461
 551.99;  193.891;  194.669;  196.932;-0.77725
 552.57;  193.667;  194.889;  197.915;-1.22148
 553.15;  213.055;  213.946;  214.893;-0.89133
 553.73;  172.472;  174.061;  174.930;-1.58978
 554.30;  203.989;  205.492;  206.191;-1.50321
 554.88;  189.902;  190.590;  191.836;-0.68806
 555.46;  198.180;  199.623;  201.328;-1.44357
 556.04;  191.694;  193.834;  193.265;-2.13992
 556.62;  213.765;  215.177;  215.762;-1.41168
 557.20;  177.111;  180.119;  178.369;-3.00806
 557.78;  199.376;  201.147;  201.259;-1.77149
 558.36;  213.302;  214.341;  213.174;-1.03857
 558.94;  210.790;  212.844;  212.481;-2.05332
 559.52;  184.277;  186.182;  185.274;-1.90483
 560.10;  198.517;  201.499;  200.758;-2.98137
 560.68;  198.387;  199.206;  200.698;-0.81857
 561.26;  220.018;  221.239;  221.469;-1.22078
 561.84;  177.633;  180.470;  179.169;-2.83767
 562.42;  193.108;  194.239;  194.921;-1.13026
 563.00;  199.017;  201.398;  200.683;-2.38191
 563.58;  196.297;  197.781;  197.730;-1.48345
 564.15;  193.651;  195.206;  196.425;-1.55503
 564.73;  201.941;  202.543;  203.546;-0.60143
 565.31;  211.732;  213.837;  214.694;-2.10492
 565.89;  177.887;  179.559;  180.168;-1.67204
 566.47;  188.777;  189.387;  190.334;-0.61037
 567.05;  209.237;  211.210;  209.801;-1.97385
 567.63;  192.088;  194.227;  193.745;-2.13868
 568.21;  184.921;  186.918;  188.234;-1.99700
 568.79;  210.387;  213.040;  211.859;-2.65225
 569.36;  233.604;  236.037;  236.033;-2.43392
 569.94;  187.523;  189.897;  190.086;-2.37440
 570.52;  207.185;  209.414;  208.876;-2.22909
 571.10;  155.390;  157.228;  157.098;-1.83754
 571.68;  198.050;  199.169;  199.348;-1.11930
 572.26;  204.439;  205.252;  206.805;-0.81302
 572.84;  209.248;  211.646;  213.302;-2.39749
 573.41;  188.210;  188.731;  191.510;-0.52129
 573.99;  231.347;  232.272;  234.484;-0.92491
 574.57;  193.294;  194.210;  198.005;-0.91593
 575.15;  226.799;  226.994;  233.762;-0.19521
 575.73;  216.482;  211.061;  238.659; 5.42120
 576.31;  310.722;  207.503;  581.907;103.21907
 576.88;  453.831;  183.441;  993.686;270.39041
 577.46;  370.172;  191.931;  632.249;178.24130
 578.04;  222.088;  186.325;  314.338;35.76266
 578.62;  382.574;  185.047;  838.586;197.52723
 579.20;  475.525;  190.908; 1006.280;284.61748
 579.78;  298.113;  199.021;  438.584;99.09223
 580.35;  207.789;  198.263;  224.094; 9.52677
 580.93;  187.898;  186.738;  193.932; 1.15964
 581.51;  201.954;  201.746;  203.406; 0.20797
 582.09;  179.805;  180.813;  181.770;-1.00777
 582.67;  180.509;  182.177;  181.880;-1.66761
 583.24;  183.318;  184.733;  185.282;-1.41427
 583.82;  187.341;  189.105;  188.714;-1.76424
 584.40;  184.734;  186.757;  186.158;-2.02342
 584.98;  181.916;  184.186;  183.929;-2.26966
 585.55;  194.065;  195.976;  197.391;-1.91145
 586.13;  168.611;  171.705;  170.347;-3.09390
 586.71;  191.207;  194.074;  193.534;-2.86671
 587.29;  185.781;  188.101;  185.393;-2.31921
 587.86;  187.488;  189.231;  189.128;-1.74289
 588.44;  150.856;  152.704;  151.278;-1.84826
 589.02;  201.795;  204.099;  202.846;-2.30448
 589.60;  180.645;  182.229;  180.686;-1.58373
 590.17;  192.367;  194.163;  192.297;-1.79595
 590.75;  168.232;  171.063;  169.301;-2.83058
 591.33;  169.089;  171.421;  171.119;-2.33189
 591.91;  178.767;  180.727;  180.134;-1.96009
 592.48;  174.112;  176.081;  174.727;-1.96827
 593.06;  189.754;  193.062;  191.277;-3.30825
 593.64;  185.767;  188.266;  186.123;-2.49928
 594.21;  171.754;  173.822;  171.966;-2.06886
 594.79;  183.556;  186.194;  184.253;-2.63850
 595.37;  186.587;  187.110;  186.634;-0.52305
 595.95;  169.943;  171.408;  169.210;-1.46469
 596.52;  174.669;  178.059;  174.385;-3.38987
 597.10;  180.306;  182.221;  181.543;-1.91421
 597.68;  165.545;  168.466;  167.048;-2.92145
 598.25;  190.649;  193.124;  191.102;-2.47488
 598.83;  166.766;  170.075;  168.230;-3.30902
 599.41;  182.234;  183.925;  181.930;-1.69087
 599.98;  207.151;  209.299;  207.470;-2.14795
 600.56;  195.655;  198.222;  196.510;-2.56656
 601.14;  180.526;  183.432;  182.296;-2.90580
 601.71;  185.283;  187.701;  185.581;-2.41838
 602.29;  170.770;  173.090;  171.919;-2.32062
 602.87;  195.016;  198.007;  196.942;-2.99108
 603.44;  189.847;  190.942;  189.970;-1.09558
 604.02;  183.285;  183.873;  183.106;-0.58876
 604.60;  202.016;  205.136;  201.173;-3.11972
 605.17;  208.777;  210.883;  208.291;-2.10604
 605.75;  196.794;  200.919;  198.867;-4.12419
 606.33;  188.770;  192.459;  190.642;-3.68952
 606.90;  210.283;  213.122;  211.394;-2.83929
 607.48;  199.195;  201.531;  199.325;-2.33689
 608.05;  177.644;  180.964;  178.524;-3.31954
 608.63;  185.681;  188.721;  186.371;-3.03943
 609.21;  175.846;  179.004;  176.448;-3.15803
 609.78;  204.270;  206.910;  205.182;-2.64064
 610.36;  192.444;  195.156;  191.741;-2.71172
 610.93;  196.264;  199.919;  196.171;-3.65504
 611.51;  180.061;  181.818;  179.469;-1.75782
 612.09;  207.568;  209.802;  207.395;-2.23378
 612.66;  189.114;  191.850;  190.107;-2.73568
 613.24;  202.316;  206.140;  203.003;-3.82464
 613.81;  206.338;  209.069;  206.200;-2.73063
 614.39;  202.773;  205.430;  203.399;-2.65742
 614.96;  218.265;  221.164;  217.412;-2.89935
 615.54;  201.774;  204.199;  201.843;-2.42539
 616.12;  211.176;  213.779;  209.965;-2.60285
 616.69;  168.598;  170.837;  169.197;-2.23904
 617.27;  196.985;  198.877;  196.719;-1.89175
 617.84;  177.178;  181.457;  178.833;-4.27980
 618.42;  212.869;  216.282;  211.207;-3.41251
 618.99;  197.474;  199.422;  195.870;-1.94768
 619.57;  214.814;  217.872;  214.600;-3.05817
 620.14;  204.189;  206.661;  204.552;-2.47195
 620.72;  183.261;  185.908;  183.325;-2.64644
 621.30;  206.684;  209.281;  206.934;-2.59678
 621.87;  214.485;  218.241;  212.652;-3.75609
 622.45;  203.460;  207.620;  204.167;-4.16035
 623.02;  178.051;  179.695;  178.127;-1.64358
 623.60;  188.431;  191.127;  189.356;-2.69612
 624.17;  194.887;  198.470;  194.886;-3.58268
 624.75;  205.975;  207.818;  205.327;-1.84340
 625.32;  191.860;  195.868;  192.308;-4.00764
 625.90;  198.036;  201.307;  198.133;-3.27104
 626.47;  209.351;  213.203;  210.485;-3.85223
 627.05;  179.795;  184.182;  179.759;-4.38715
 627.62;  197.720;  201.442;  196.459;-3.72234
 628.20;  218.216;  222.275;  218.249;-4.05863
 628.77;  211.716;  214.734;  211.877;-3.01840
 629.34;  232.072;  234.869;  231.819;-2.79662
 629.92;  185.864;  190.410;  187.490;-4.54596
 630.49;  214.049;  215.566;  213.266;-1.51699
 631.07;  187.312;  192.406;  188.294;-5.09325
 631.64;  188.510;  191.284;  187.824;-2.77414
 632.22;  229.602;  234.084;  230.912;-4.48189
 632.79;  206.046;  208.841;  206.039;-2.79551
 633.37;  213.141;  216.164;  212.526;-3.02328
 633.94;  208.044;  210.820;  206.488;-2.77602
 634.52;  200.602;  203.733;  199.758;-3.13033
 635.09;  214.752;  218.961;  215.253;-4.20938
 635.66;  181.098;  184.069;  181.904;-2.97080
 636.24;  195.799;  198.740;  196.282;-2.94188
 636.81;  236.724;  239.193;  236.037;-2.46934
 637.39;  218.769;  222.206;  219.425;-3.43709
 637.96;  215.619;  218.635;  214.710;-3.01660
 638.54;  215.561;  217.872;  214.657;-2.31105
 639.11;  192.120;  193.753;  192.193;-1.63272
 639.68;  217.714;  221.833;  218.132;-4.11873
 640.26;  201.862;  204.087;  200.830;-2.22505
 640.83;  203.221;  206.459;  202.731;-3.23808
 641.41;  196.416;  198.538;  195.288;-2.12211
 641.98;  201.057;  204.173;  202.609;-3.11614
 642.55;  181.866;  184.582;  181.128;-2.71617
 643.13;  198.583;  201.280;  198.066;-2.69720
 643.70;  218.317;  221.121;  217.215;-2.80423
 644.27;  204.532;  206.951;  203.618;-2.41926
 644.85;  194.149;  196.053;  194.159;-1.90430
 645.42;  202.180;  203.918;  199.911;-1.73833
 645.99;  191.245;  193.777;  190.061;-2.53236
 646.57;  196.834;  199.365;  196.463;-2.53139
 647.14;  203.530;  204.351;  201.200;-0.82142
 647.72;  180.133;  182.960;  180.416;-2.82645
 648.29;  192.650;  195.715;  192.608;-3.06448
 648.86;  217.212;  219.854;  216.710;-2.64151
 649.44;  184.764;  187.366;  183.041;-2.60154
 650.01;  194.558;  196.697;  193.457;-2.13858
 650.58;  203.529;  206.635;  202.430;-3.10561
 651.16;  201.563;  203.225;  200.440;-1.66164
 651.73;  189.790;  192.993;  187.736;-3.20267
 652.30;  205.445;  208.247;  207.431;-2.80170
 652.87;  191.291;  194.664;  192.315;-3.37273
 653.45;  213.427;  216.135;  212.966;-2.70776
 654.02;  187.816;  191.063;  187.624;-3.24679
 654.59;  198.345;  200.659;  196.423;-2.31383
 655.17;  202.785;  205.534;  201.261;-2.74886
 655.74;  185.471;  190.469;  184.871;-4.99789
 656.31;  199.656;  201.761;  197.131;-2.10492
 656.89;  200.796;  202.652;  199.572;-1.85595
 657.46;  206.752;  209.284;  205.138;-2.53198
 658.03;  212.521;  215.188;  212.823;-2.66701
 658.60;  194.451;  198.057;  194.048;-3.60604
 659.18;  209.207;  212.581;  210.082;-3.37408
 659.75;  194.232;  197.034;  194.466;-2.80211
 660.32;  212.358;  215.487;  212.587;-3.12914
 660.89;  193.724;  196.388;  193.109;-2.66417
 661.47;  212.886;  215.584;  212.436;-2.69720
 662.04;  213.477;  215.996;  212.492;-2.51823
 662.61;  195.644;  198.714;  195.400;-3.06926
 663.18;  201.325;  205.163;  202.315;-3.83729
 663.76;  182.359;  185.763;  181.848;-3.40333
 664.33;  209.518;  211.416;  208.590;-1.89736
 664.90;  203.394;  205.960;  203.257;-2.56539
 665.47;  198.924;  200.663;  197.715;-1.73842
 666.05;  191.063;  192.534;  190.679;-1.47045
 666.62;  225.399;  227.500;  225.637;-2.10048
 667.19;  190.658;  194.157;  192.394;-3.49851
 667.76;  187.772;  187.471;  189.455; 0.30146
 668.33;  189.691;  191.824;  191.776;-2.13258
 668.91;  182.039;  184.050;  180.984;-2.01061
 669.48;  195.137;  198.330;  195.022;-3.19264
 670.05;  182.239;  185.837;  181.436;-3.59767
 670.62;  202.163;  204.091;  200.111;-1.92770
 671.19;  199.864;  201.615;  199.468;-1.75173
 671.76;  205.368;  209.083;  204.944;-3.71576
 672.34;  187.880;  190.858;  187.849;-2.97879
 672.91;  196.608;  199.040;  196.127;-2.43283
 673.48;  187.658;  189.507;  188.041;-1.84986
 674.05;  211.141;  213.379;  210.493;-2.23889
 674.62;  208.138;  210.870;  207.026;-2.73292
 675.19;  199.189;  202.024;  199.583;-2.83495
 675.77;  202.986;  205.992;  203.236;-3.00598
 676.34;  177.627;  180.600;  176.251;-2.97301
 676.91;  192.613;  196.357;  192.447;-3.74404
 677.48;  195.178;  199.204;  196.000;-4.02608
 678.05;  194.760;  196.463;  194.424;-1.70311
 678.62;  204.666;  209.037;  206.241;-4.37114
 679.19;  199.516;  201.859;  199.488;-2.34317
 679.77;  192.843;  194.613;  191.219;-1.77020
 680.34;  161.100;  162.436;  160.329;-1.33623
 680.91;  189.857;  192.401;  189.018;-2.54426
 681.48;  192.676;  196.198;  192.089;-3.52229
 682.05;  197.912;  200.788;  198.306;-2.87633
 682.62;  168.855;  172.432;  167.647;-3.57736
 683.19;  187.219;  190.794;  187.455;-3.57539
 683.76;  195.023;  199.868;  195.830;-4.84542
 684.33;  199.055;  202.143;  199.173;-3.08845
 684.90;  177.135;  180.460;  176.952;-3.32548
 685.48;  180.419;  183.164;  180.005;-2.74551
 686.05;  177.563;  180.057;  177.615;-2.49454
 686.62;  196.518;  198.586;  197.183;-2.06857
 687.19;  176.437;  179.581;  176.679;-3.14461
 687.76;  187.374;  190.217;  187.707;-2.84364
 688.33;  190.108;  192.783;  190.216;-2.67567
 688.90;  187.704;  191.337;  187.084;-3.63270
 689.47;  149.413;  152.809;  148.484;-3.39573
 690.04;  176.033;  177.694;  177.908;-1.66076
 690.61;  185.526;  185.839;  191.835;-0.31279
 691.18;  169.142;  170.278;  172.036;-1.13582
 691.75;  209.471;  212.459;  209.598;-2.98786
 692.32;  190.354;  194.106;  191.508;-3.75189
 692.89;  208.883;  211.253;  209.013;-2.36992
 693.46;  193.284;  194.866;  194.434;-1.58195
 694.03;  185.528;  188.025;  185.955;-2.49698
 694.60;  195.333;  199.672;  198.362;-4.33901
 695.17;  192.621;  191.577;  198.056; 1.04396
 695.74;  202.152;  180.134;  295.952;22.01793
 696.31;  256.118;  188.224;  526.357;67.89389
 696.88;  249.327;  198.699;  436.680;50.62786
 697.45;  187.469;  181.178;  217.769; 6.29083
 698.02;  165.723;  167.148;  171.529;-1.42520
 698.59;  167.297;  169.870;  171.783;-2.57323
 699.16;  173.022;  174.556;  173.378;-1.53426
 699.73;  185.009;  188.459;  185.243;-3.45029
 700.30;  173.020;  176.728;  173.389;-3.70832
 700.87;  191.813;  195.343;  192.910;-3.53036
 701.44;  191.114;  193.545;  190.847;-2.43139
 702.01;  184.898;  187.919;  185.005;-3.02142
 702.58;  207.398;  209.369;  206.841;-1.97045
 703.15;  172.507;  174.951;  172.191;-2.44348
 703.72;  192.274;  195.526;  192.738;-3.25151
 704.29;  167.473;  169.140;  167.346;-1.66654
 704.86;  198.541;  201.306;  199.260;-2.76457
 705.43;  191.008;  193.210;  191.919;-2.20161
 706.00;  193.820;  188.952;  222.417; 4.86836
 706.57;  197.323;  182.400;  262.230;14.92333
 707.14;  185.835;  177.202;  221.456; 8.63330
 707.70;  213.408;  214.450;  218.764;-1.04173
 708.27;  179.537;  182.808;  179.997;-3.27076
 708.84;  177.644;  181.019;  178.009;-3.37479
 709.41;  160.207;  162.687;  159.808;-2.47982
 709.98;  203.652;  207.885;  204.521;-4.23286
 710.55;  179.866;  183.079;  181.279;-3.21289
 711.12;  199.911;  202.966;  198.254;-3.05492
 711.69;  195.508;  197.533;  194.719;-2.02495
 712.26;  193.939;  197.826;  194.505;-3.88698
 712.83;  211.174;  212.983;  210.775;-1.80901
 713.39;  196.868;  198.778;  195.453;-1.91004
 713.96;  207.964;  210.219;  212.738;-2.25507
 714.53;  195.233;  196.000;  206.613;-0.76711
 715.10;  194.808;  196.366;  202.143;-1.55814
 715.67;  175.066;  177.510;  175.208;-2.44417
 716.24;  193.973;  197.324;  193.437;-3.35020
 716.81;  212.400;  215.543;  211.046;-3.14223
 717.37;  195.009;  198.613;  195.090;-3.60326
 717.94;  202.341;  204.726;  202.676;-2.38429
 718.51;  203.424;  206.366;  203.290;-2.94132
 719.08;  186.437;  189.358;  185.101;-2.92036
 719.65;  212.110;  215.498;  211.135;-3.38739
 720.22;  206.221;  209.388;  206.097;-3.16642
 720.78;  198.769;  202.904;  198.790;-4.13445
 721.35;  186.646;  189.827;  186.655;-3.18048
 721.92;  214.914;  216.293;  214.834;-1.37851
 722.49;  202.322;  205.337;  202.874;-3.01454
 723.06;  198.967;  201.142;  198.919;-2.17457
 723.63;  168.263;  171.743;  168.342;-3.47960
 724.19;  211.139;  214.440;  210.839;-3.30064
 724.76;  187.912;  191.543;  189.063;-3.63067
 725.33;  198.114;  201.965;  199.054;-3.85070
 725.90;  217.800;  220.459;  219.058;-2.65973
 726.46;  206.905;  202.217;  233.585; 4.68724
 727.03;  239.151;  220.235;  315.146;18.91521
 727.60;  174.348;  163.342;  231.534;11.00518
 728.17;  205.210;  205.397;  215.136;-0.18785
 728.74;  207.840;  211.747;  209.799;-3.90789
 729.30;  192.058;  194.958;  191.518;-2.90092
 729.87;  191.745;  193.779;  192.096;-2.03395
 730.44;  215.720;  218.921;  216.598;-3.20098
 731.01;  207.086;  210.214;  208.547;-3.12801
 731.57;  189.964;  192.814;  190.066;-2.85004
 732.14;  186.545;  190.337;  186.899;-3.79207
 732.71;  190.835;  192.707;  189.752;-1.87210
 733.28;  226.656;  229.421;  228.133;-2.76514
 733.84;  185.884;  188.180;  185.858;-2.29617
 734.41;  184.513;  188.004;  184.891;-3.49120
 734.98;  206.681;  209.380;  207.761;-2.69923
 735.54;  222.235;  224.732;  221.853;-2.49726
 736.11;  189.687;  193.223;  191.575;-3.53629
 736.68;  183.807;  185.566;  186.264;-1.75932
 737.25;  196.515;  196.194;  210.177; 0.32065
 737.81;  232.001;  206.607;  317.032;25.39361
 738.38;  234.504;  201.944;  364.691;32.55958
 738.95;  230.498;  218.449;  282.287;12.04855
 739.51;  211.652;  211.819;  217.624;-0.16748
 740.08;  204.620;  206.974;  207.208;-2.35451
 740.65;  187.777;  190.451;  188.889;-2.67454
 741.21;  202.615;  205.345;  203.778;-2.73057
 741.78;  207.006;  209.359;  208.168;-2.35360
 742.35;  203.709;  205.910;  203.225;-2.20164
 742.91;  218.706;  221.504;  219.878;-2.79867
 743.48;  203.996;  204.741;  203.324;-0.74470
 744.05;  196.237;  199.941;  196.786;-3.70373
 744.61;  203.615;  206.230;  204.593;-2.61476
 745.18;  185.635;  190.159;  187.125;-4.52379
 745.75;  200.766;  203.185;  201.497;-2.41882
 746.31;  228.685;  230.991;  230.891;-2.30585
 746.88;  198.616;  200.707;  200.522;-2.09089
 747.44;  199.915;  201.297;  201.675;-1.38192
 748.01;  227.069;  230.554;  231.329;-3.48495
 748.58;  209.310;  209.499;  213.293;-0.18898
 749.14;  202.714;  199.610;  226.526; 3.10399
 749.71;  256.194;  198.910;  451.231;57.28396
 750.28;  297.090;  205.722;  683.607;91.36793
 750.84;  278.361;  205.812;  549.218;72.54890
 751.41;  235.313;  193.709;  400.206;41.60386
 751.97;  220.595;  204.210;  287.792;16.38483
 752.54;  197.364;  198.148;  213.887;-0.78420
 753.11;  192.681;  194.676;  198.839;-1.99523
 753.67;  201.945;  205.044;  204.969;-3.09926
 754.24;  195.556;  197.777;  196.031;-2.22129
 754.80;  220.738;  223.433;  221.209;-2.69532
 755.37;  179.345;  181.025;  180.823;-1.68035
 755.93;  213.900;  215.711;  215.748;-1.81139
 756.50;  203.866;  206.490;  204.941;-2.62442
 757.07;  208.955;  211.860;  211.182;-2.90445
 757.63;  183.043;  184.709;  183.805;-1.66548
 758.20;  185.879;  189.259;  187.333;-3.37951
 758.76;  194.120;  197.024;  194.976;-2.90354
 759.33;  166.395;  167.743;  168.252;-1.34757
 759.89;  193.783;  194.521;  196.370;-0.73760
 760.46;  196.814;  198.034;  198.611;-1.21964
 761.02;  209.036;  210.179;  212.126;-1.14267
 761.59;  192.343;  192.068;  198.304; 0.27530
 762.15;  216.717;  208.611;  247.196; 8.10627
 762.72;  305.986;  193.498;  649.960;112.48824
 763.28;  435.181;  183.209; 1239.594;251.97221
 763.85;  362.795;  198.448;  891.355;164.34718
 764.41;  228.595;  202.891;  332.429;25.70415
 764.98;  210.009;  208.257;  229.754; 1.75212
 765.54;  204.538;  205.600;  213.852;-1.06192
 766.11;  199.476;  201.997;  202.867;-2.52095
 766.67;  176.454;  177.836;  178.359;-1.38198
 767.24;  203.535;  204.382;  202.687;-0.84701
 767.80;  190.294;  192.250;  191.715;-1.95604
 768.37;  188.352;  190.143;  189.443;-1.79107
 768.93;  188.010;  188.904;  189.093;-0.89410
 769.50;  197.148;  199.529;  198.465;-2.38113
 770.06;  187.451;  189.196;  190.397;-1.74517
 770.63;  194.483;  196.502;  199.082;-2.01820
 771.19;  199.281;  193.654;  227.151; 5.62777
 771.75;  250.012;  180.382;  467.412;69.63074
 772.32;  291.038;  183.304;  655.670;107.73471
 772.88;  249.970;  199.042;  430.088;50.92868
 773.45;  195.471;  190.442;  224.071; 5.02965
 774.01;  192.550;  194.143;  198.828;-1.59238
 774.58;  188.937;  191.283;  194.013;-2.34542
 775.14;  209.470;  211.771;  209.763;-2.30045
 775.70;  208.222;  211.245;  210.502;-3.02248
 776.27;  200.278;  203.449;  201.405;-3.17051
 776.83;  203.331;  206.935;  204.461;-3.60354
 777.40;  181.310;  185.146;  181.585;-3.83557
 777.96;  183.365;  186.562;  183.867;-3.19660
 778.52;  209.423;  211.924;  207.743;-2.50063
 779.09;  201.797;  205.139;  201.800;-3.34167
 779.65;  202.965;  206.596;  203.406;-3.63070
 780.22;  188.411;  191.477;  187.576;-3.06673
 780.78;  216.261;  219.545;  214.658;-3.28476
 781.34;  215.618;  217.448;  214.646;-1.83079
 781.91;  192.381;  195.823;  191.584;-3.44282
 782.47;  232.900;  236.677;  232.910;-3.77785
 783.03;  211.382;  215.245;  211.398;-3.86388
 783.60;  190.192;  194.822;  191.427;-4.63092
 784.16;  220.196;  222.448;  220.687;-2.25195
 784.72;  192.774;  195.975;  193.537;-3.20098
 785.29;  201.080;  204.757;  201.212;-3.67701
 785.85;  220.944;  224.009;  220.478;-3.06504
 786.41;  205.653;  208.712;  206.244;-3.05907
 786.98;  197.428;  200.760;  197.510;-3.33210
 787.54;  219.278;  222.384;  218.860;-3.10613
 788.10;  196.005;  199.111;  196.332;-3.10617
 788.67;  208.880;  213.399;  210.754;-4.51920
 789.23;  198.488;  202.297;  198.879;-3.80923
 789.79;  213.431;  215.844;  213.134;-2.41326
 790.36;  192.050;  194.272;  191.785;-2.22229
 790.92;  207.035;  209.568;  206.587;-2.53332
 791.48;  191.488;  194.686;  193.516;-3.19835
 792.05;  217.667;  219.769;  218.837;-2.10238
 792.61;  203.388;  204.998;  203.583;-1.61042
 793.17;  210.626;  213.991;  215.509;-3.36545
 793.73;  220.597;  216.065;  244.626; 4.53152
 794.30;  246.075;  211.749;  356.072;34.32549
 794.86;  261.682;  224.545;  393.666;37.13646
 795.42;  216.381;  204.638;  263.159;11.74243
 795.98;  203.192;  205.454;  211.893;-2.26260
 796.55;  194.119;  194.789;  195.486;-0.67063
 797.11;  210.959;  213.428;  212.302;-2.46967
 797.67;  243.437;  245.488;  245.084;-2.05070
 798.23;  183.137;  185.231;  184.555;-2.09373
 798.80;  217.380;  218.683;  218.281;-1.30276
 799.36;  221.417;  220.889;  232.696; 0.52821
 799.92;  234.687;  214.271;  310.328;20.41618
 800.48;  261.079;  220.741;  413.728;40.33815
 801.05;  263.317;  216.793;  422.721;46.52412
 801.61;  244.221;  214.187;  353.586;30.03409
 802.17;  211.445;  205.839;  244.980; 5.60605
 802.73;  220.629;  220.825;  224.876;-0.19598
 803.29;  186.272;  187.075;  188.525;-0.80301
 803.86;  215.804;  217.860;  216.753;-2.05604
 804.42;  219.524;  221.799;  221.554;-2.27507
 804.98;  234.940;  237.586;  235.995;-2.64610
 805.54;  219.287;  221.901;  220.379;-2.61413
 806.10;  216.671;  219.192;  216.959;-2.52116
 806.66;  248.474;  250.873;  249.895;-2.39920
 807.23;  222.853;  225.518;  223.658;-2.66523
 807.79;  216.175;  218.095;  216.850;-1.92026
 808.35;  226.166;  228.273;  227.824;-2.10729
 808.91;  207.408;  209.176;  212.987;-1.76832
 809.47;  213.411;  198.950;  264.386;14.46065
 810.03;  251.962;  211.783;  392.351;40.17862
 810.60;  304.539;  239.799;  507.373;64.73959
 811.16;  314.378;  204.523;  629.834;109.85555
 811.72;  325.969;  241.340;  583.026;84.62952
 812.28;  230.271;  211.331;  305.465;18.94049
 812.84;  231.550;  230.825;  245.167; 0.72546
 813.40;  241.615;  242.181;  247.112;-0.56557
 813.96;  229.813;  231.585;  235.064;-1.77160
 814.52;  229.895;  231.331;  230.727;-1.43563
 815.09;  215.785;  217.751;  217.536;-1.96566
 815.65;  230.226;  233.517;  230.944;-3.29070
 816.21;  222.210;  225.300;  222.389;-3.08973
 816.77;  226.244;  229.301;  225.660;-3.05676
 817.33;  223.503;  225.238;  222.182;-1.73479
 817.89;  218.860;  222.458;  219.820;-3.59782
 818.45;  252.316;  255.372;  252.643;-3.05585
 819.01;  229.309;  231.940;  231.281;-2.63088
 819.57;  224.831;  228.306;  224.944;-3.47491
 820.13;  223.773;  226.638;  224.373;-2.86495
 820.69;  243.683;  244.863;  243.814;-1.17998
 821.25;  220.728;  224.011;  220.494;-3.28301
 821.82;  212.169;  214.848;  212.805;-2.67904
 822.38;  230.873;  234.229;  231.349;-3.35607
 822.94;  231.444;  234.120;  232.561;-2.67610
 823.50;  227.728;  231.919;  228.708;-4.19113
 824.06;  228.092;  230.757;  230.499;-2.66516
 824.62;  220.833;  221.177;  223.250;-0.34320
 825.18;  259.453;  256.264;  282.566; 3.18977
 825.74;  259.827;  212.827;  403.395;47.00074
 826.30;  280.109;  213.028;  526.098;67.08171
 826.86;  251.776;  217.866;  384.641;33.91068
 827.42;  240.349;  235.818;  267.421; 4.53165
 827.98;  238.702;  239.046;  242.654;-0.34338
 828.54;  223.708;  225.289;  226.714;-1.58041
 829.10;  215.116;  217.202;  216.639;-2.08545
 829.66;  235.804;  237.921;  237.048;-2.11648
 830.22;  218.015;  222.018;  218.789;-4.00251
 830.78;  205.857;  208.527;  205.779;-2.66954
 831.34;  221.163;  223.362;  221.566;-2.19857
 831.90;  232.010;  236.138;  232.594;-4.12760
 832.46;  221.556;  223.782;  222.131;-2.22563
 833.02;  193.237;  197.083;  193.142;-3.84566
 833.58;  227.336;  230.115;  226.969;-2.77870
 834.14;  217.744;  220.476;  217.512;-2.73273
 834.70;  228.708;  231.332;  228.005;-2.62476
 835.25;  196.962;  199.977;  196.137;-3.01579
 835.81;  206.299;  209.255;  206.325;-2.95682
 836.37;  217.559;  219.946;  216.196;-2.38785
 836.93;  229.931;  231.834;  229.202;-1.90388
 837.49;  226.349;  228.320;  224.375;-1.97191
 838.05;  201.779;  204.064;  201.486;-2.28494
 838.61;  214.332;  215.408;  213.059;-1.07598
 839.17;  210.235;  211.379;  211.516;-1.14401
 839.73;  228.010;  221.396;  251.805; 6.61396
 840.29;  256.403;  228.435;  351.164;27.96793
 840.85;  236.322;  206.682;  347.146;29.63990
 841.41;  239.821;  218.037;  322.252;21.78387
 841.97;  264.918;  218.242;  411.688;46.67584
 842.52;  260.705;  217.246;  414.539;43.45881
 843.08;  215.697;  202.932;  272.665;12.76477
 843.64;  209.101;  208.146;  219.877; 0.95474
 844.20;  216.999;  218.055;  219.792;-1.05629
 844.76;  226.361;  229.330;  227.489;-2.96932
 845.32;  182.484;  185.444;  182.083;-2.96035
 845.88;  211.898;  214.084;  212.597;-2.18638
 846.44;  222.003;  224.241;  221.439;-2.23841
 846.99;  232.118;  234.728;  234.014;-2.61044
 847.55;  212.595;  213.945;  211.176;-1.35048
 848.11;  183.879;  185.082;  184.253;-1.20351
 848.67;  210.393;  211.981;  209.677;-1.58854
 849.23;  187.199;  190.398;  187.354;-3.19957
 849.79;  207.732;  210.904;  207.754;-3.17260
 850.34;  216.462;  218.550;  217.249;-2.08863
 850.90;  190.041;  190.252;  198.598;-0.21166
 851.46;  240.148;  227.328;  284.448;12.82031
 852.02;  243.361;  226.958;  310.051;16.40327
 852.58;  192.645;  185.919;  226.479; 6.72624
 853.13;  205.015;  205.795;  212.880;-0.77979
 853.69;  206.731;  209.143;  207.591;-2.41182
 854.25;  240.575;  244.233;  240.958;-3.65785
 854.81;  201.829;  204.708;  201.292;-2.87888
 855.37;  205.052;  208.307;  203.110;-3.25491
 855.92;  226.207;  229.252;  225.933;-3.04494
 856.48;  205.522;  208.377;  204.808;-2.85498
 857.04;  226.384;  228.688;  224.937;-2.30401
 857.60;  223.013;  226.150;  221.691;-3.13704
 858.16;  218.321;  221.937;  217.639;-3.61607
 858.71;  228.910;  231.243;  227.251;-2.33310
 859.27;  211.102;  214.382;  210.295;-3.28013
 859.83;  211.109;  213.217;  211.887;-2.10816
 860.39;  208.676;  211.025;  207.988;-2.34919
 860.94;  209.437;  211.447;  208.898;-2.01023
 861.50;  202.762;  204.777;  202.645;-2.01526
 862.06;  216.655;  220.290;  216.264;-3.63529
 862.61;  216.663;  219.647;  216.371;-2.98432
 863.17;  188.156;  190.978;  187.515;-2.82235
 863.73;  224.028;  225.883;  223.272;-1.85538
 864.29;  212.587;  215.231;  211.240;-2.64441
 864.84;  220.680;  223.541;  219.672;-2.86044
 865.40;  219.851;  221.994;  219.038;-2.14248
 865.96;  206.406;  207.350;  208.804;-0.94351
 866.51;  213.846;  214.031;  222.897;-0.18454
 867.07;  222.454;  224.850;  228.737;-2.39557
 867.63;  236.361;  238.737;  236.493;-2.37560
 868.18;  229.398;  232.868;  229.520;-3.46963
 868.74;  231.187;  233.738;  230.043;-2.55066
 869.30;  213.638;  217.828;  213.752;-4.18969
 869.86;  201.454;  204.089;  201.508;-2.63473
 870.41;  237.855;  240.623;  237.917;-2.76776
 870.97;  210.970;  213.714;  209.444;-2.74379
 871.52;  213.191;  217.067;  212.542;-3.87582
 872.08;  234.566;  238.127;  235.584;-3.56085
 872.64;  219.460;  221.349;  218.988;-1.88888
 873.19;  195.893;  199.040;  195.874;-3.14691
 873.75;  210.513;  212.121;  209.072;-1.60794
 874.31;  204.005;  207.322;  203.565;-3.31698
 874.86;  226.406;  230.177;  226.270;-3.77098
 875.42;  237.960;  240.846;  237.359;-2.88598
 875.98;  218.835;  222.242;  218.238;-3.40698
 876.53;  218.680;  222.295;  218.441;-3.61498
 877.09;  236.612;  241.741;  237.172;-5.12898
 877.64;  219.949;  222.889;  219.847;-2.93998
 878.20;  217.603;  219.631;  217.135;-2.02798
 878.76;  230.984;  233.231;  230.433;-2.24698
 879.31;  192.967;  194.131;  191.037;-1.16398
 879.87;  225.251;  228.032;  225.200;-2.78098
 880.42;  218.238;  221.918;  218.426;-3.67998
 880.98;  207.827;  210.557;  206.335;-2.72998
 881.54;  240.537;  243.424;  239.657;-2.88698
 882.09;  217.668;  220.116;  217.616;-2.44798
 882.65;  235.422;  237.168;  233.592;-1.74598
 883.20;  229.124;  231.489;  227.445;-2.36498
 883.76;  230.089;  233.743;  229.491;-3.65398
 884.31;  225.525;  226.603;  222.772;-1.07798
 884.87;  253.940;  256.524;  252.670;-2.58398
 885.42;  215.628;  219.318;  214.634;-3.68998
 885.98;  204.171;  206.523;  203.171;-2.35198
 886.53;  222.697;  226.290;  221.606;-3.59298
 887.09;  234.473;  237.940;  233.277;-3.46698
 887.65;  227.297;  229.196;  227.075;-1.89898
 888.20;  219.972;  223.925;  219.081;-3.95298
 888.76;  216.508;  220.715;  216.553;-4.20698
 889.31;  228.176;  230.708;  227.063;-2.53198
 889.87;  228.196;  230.738;  226.933;-2.54198
 890.42;  219.111;  222.643;  219.404;-3.53198
 890.98;  225.436;  229.285;  224.217;-3.84898
 891.53;  199.662;  201.177;  198.956;-1.51498
 892.09;  235.348;  238.930;  233.343;-3.58198
 892.64;  217.860;  220.890;  217.915;-3.02998
 893.19;  222.158;  225.413;  221.488;-3.25498
 893.75;  207.606;  210.257;  206.559;-2.65098
 894.30;  236.810;  240.083;  236.042;-3.27298
 894.86;  204.995;  208.500;  205.145;-3.50498
 895.41;  243.833;  246.450;  242.484;-2.61698
 895.97;  207.889;  210.036;  207.451;-2.14698
 896.52;  243.537;  246.870;  244.098;-3.33298
 897.08;  226.140;  229.928;  227.097;-3.78798
 897.63;  241.617;  246.046;  242.463;-4.42898
 898.19;  222.762;  226.919;  221.941;-4.15698
 898.74;  244.173;  247.075;  241.964;-2.90198
 899.29;  241.435;  245.273;  241.423;-3.83798
 899.85;  217.678;  221.740;  217.840;-4.06198
 900.40;  224.583;  226.652;  224.623;-2.06898
 900.96;  225.763;  228.804;  224.386;-3.04098
 901.51;  222.937;  226.461;  221.344;-3.52398
 902.06;  225.700;  229.154;  225.298;-3.45398
 902.62;  236.145;  240.257;  235.915;-4.11198
 903.17;  233.040;  235.968;  232.176;-2.92798
 903.73;  235.086;  237.288;  235.707;-2.20198
 904.28;  217.591;  221.110;  216.385;-3.51898
 904.83;  251.034;  252.668;  249.126;-1.63398
 905.39;  203.520;  206.849;  202.872;-3.32898
 905.94;  230.356;  232.762;  229.504;-2.40598
 906.50;  239.618;  242.708;  239.323;-3.08998
 907.05;  220.383;  223.208;  219.363;-2.82498
 907.60;  237.511;  240.532;  236.963;-3.02098
 908.16;  227.311;  230.390;  228.085;-3.07898
 908.71;  228.868;  232.919;  229.913;-4.05098
 909.26;  233.129;  236.041;  233.397;-2.91198
 909.82;  226.554;  228.579;  227.376;-2.02498
 910.37;  231.499;  232.106;  235.399;-0.60698
 910.92;  251.707;  242.182;  281.745; 9.52503
 911.48;  306.742;  240.046;  481.890;66.69602
 912.03;  311.590;  213.506;  613.633;98.08402
 912.58;  281.692;  230.910;  476.373;50.78202
 913.14;  246.124;  236.834;  301.799; 9.29002
 913.69;  258.881;  259.090;  269.488;-0.20898
 914.24;  218.327;  219.311;  222.219;-0.98398
 914.79;  217.254;  219.736;  218.365;-2.48198
 915.35;  233.197;  236.230;  234.392;-3.03298
 915.90;  239.912;  242.465;  240.487;-2.55298
 916.45;  217.820;  221.242;  218.208;-3.42198
 917.01;  233.466;  237.045;  232.894;-3.57898
 917.56;  227.386;  230.356;  227.311;-2.96998
 918.11;  225.171;  229.497;  226.003;-4.32598
 918.66;  221.096;  224.129;  220.789;-3.03298
 919.22;  237.069;  240.044;  236.207;-2.97498
 919.77;  220.039;  223.635;  221.133;-3.59598
 920.32;  225.257;  227.047;  224.244;-1.78998
 920.87;  231.265;  232.274;  232.864;-1.00898
 921.43;  229.896;  225.202;  250.486; 4.69402
 921.98;  226.089;  213.204;  276.799;12.88502
 922.53;  226.633;  217.440;  271.522; 9.19302
 923.08;  229.476;  228.020;  245.586; 1.45602
 923.64;  228.132;  229.200;  232.794;-1.06798
 924.19;  229.833;  233.323;  231.064;-3.48998
 924.74;  209.837;  212.539;  211.372;-2.70198
 925.29;  259.838;  262.397;  260.667;-2.55897
 925.84;  234.685;  237.061;  234.899;-2.37598
 926.40;  213.143;  216.508;  212.506;-3.36498
 926.95;  214.870;  218.243;  214.402;-3.37298
 927.50;  216.016;  219.375;  216.696;-3.35898
 928.05;  227.501;  229.965;  226.066;-2.46398
 928.60;  213.132;  215.523;  210.903;-2.39098
 929.15;  228.927;  230.880;  228.948;-1.95298
 929.71;  240.474;  242.676;  238.862;-2.20198
 930.26;  220.845;  222.682;  220.145;-1.83698
 930.81;  226.844;  229.181;  226.373;-2.33698
 931.36;  234.475;  239.031;  235.832;-4.55598
 931.91;  242.120;  245.393;  241.662;-3.27298
 932.46;  238.907;  241.385;  237.655;-2.47798
 933.02;  224.630;  227.525;  224.869;-2.89498
 933.57;  212.089;  215.460;  211.497;-3.37098
 934.12;  213.432;  215.440;  212.075;-2.00798
 934.67;  230.208;  232.845;  232.336;-2.63698
 935.22;  222.090;  224.509;  225.680;-2.41898
 935.77;  248.377;  250.605;  247.265;-2.22798
 936.32;  233.388;  236.352;  233.242;-2.96398
 936.87;  234.605;  238.464;  234.404;-3.85898
 937.42;  229.290;  233.718;  230.149;-4.42798
 937.98;  209.414;  213.547;  211.733;-4.13298
 938.53;  221.964;  226.826;  221.566;-4.86198
 939.08;  212.570;  216.235;  213.091;-3.66498
 939.63;  234.807;  238.121;  233.627;-3.31398
 940.18;  245.096;  248.052;  245.398;-2.95598
 940.73;  224.778;  226.755;  224.525;-1.97698
 941.28;  210.773;  213.214;  210.218;-2.44098
 941.83;  218.391;  222.208;  218.300;-3.81698
 942.38;  213.211;  216.460;  212.832;-3.24898
 942.93;  228.991;  232.922;  228.633;-3.93098
 943.48;  227.463;  231.096;  227.078;-3.63298
 944.03;  212.175;  214.050;  210.439;-1.87498
 944.58;  215.865;  219.135;  217.194;-3.26998
 945.13;  213.205;  216.153;  212.387;-2.94798
 945.68;  206.543;  208.540;  206.217;-1.99698
 946.23;  214.975;  217.670;  213.880;-2.69498
 946.79;  214.868;  217.395;  214.171;-2.52698
 947.34;  232.705;  237.428;  232.911;-4.72298
 947.89;  239.351;  241.466;  238.836;-2.11498
 948.44;  218.700;  222.454;  219.284;-3.75398
 948.99;  217.473;  220.752;  216.924;-3.27898
 949.54;  232.371;  234.806;  230.186;-2.43498
 950.09;  215.016;  219.000;  216.219;-3.98398
 950.64;  214.099;  217.469;  213.164;-3.36998
 951.19;  194.736;  199.464;  195.816;-4.72798
 951.73;  188.245;  191.189;  187.208;-2.94398
 952.28;  231.006;  233.343;  230.870;-2.33698
 952.83;  223.952;  226.795;  222.726;-2.84298
 953.38;  243.500;  247.102;  243.581;-3.60198
 953.93;  217.873;  220.679;  216.650;-2.80598
 954.48;  218.247;  222.478;  219.371;-4.23098
 955.03;  222.356;  226.571;  222.641;-4.21498
 955.58;  219.912;  224.673;  220.638;-4.76098
 956.13;  193.138;  196.209;  192.119;-3.07098
 956.68;  203.896;  207.758;  204.813;-3.86198
 957.23;  192.752;  195.082;  190.369;-2.32998
 957.78;  204.836;  207.891;  204.342;-3.05498
 958.33;  185.026;  187.886;  184.908;-2.85998
 958.88;  213.379;  216.637;  214.074;-3.25798
 959.43;  220.600;  223.071;  220.660;-2.47098
 959.98;  207.484;  210.963;  207.110;-3.47898
 960.53;  236.738;  241.196;  235.735;-4.45798
 961.07;  207.244;  210.595;  205.337;-3.35098
 961.62;  251.382;  253.181;  250.070;-1.79897
 962.17;  213.960;  217.605;  213.949;-3.64498
 962.72;  218.432;  222.456;  217.978;-4.02398
 963.27;  218.431;  221.585;  218.272;-3.15398
 963.82;  206.113;  209.494;  207.269;-3.38098
 964.37;  233.527;  231.135;  240.124; 2.39202
 964.92;  224.790;  212.368;  264.450;12.42202
 965.46;  217.201;  201.226;  280.889;15.97502
 966.01;  220.067;  214.365;  262.804; 5.70202
 966.56;  225.885;  227.062;  237.515;-1.17698
 967.11;  226.178;  228.344;  227.550;-2.16598
 967.66;  212.307;  215.327;  213.586;-3.01998
 968.21;  207.181;  210.560;  208.194;-3.37898
 968.75;  225.788;  229.508;  224.204;-3.71998
 969.30;  216.596;  219.654;  216.833;-3.05798
 969.85;  234.402;  238.621;  233.361;-4.21898
 970.40;  222.100;  226.471;  220.821;-4.37098
 970.95;  226.839;  230.410;  226.071;-3.57098
 971.50;  222.840;  226.693;  223.994;-3.85298
 972.04;  225.834;  228.668;  225.460;-2.83398
 972.59;  234.279;  237.900;  233.089;-3.62098
 973.14;  227.658;  230.143;  226.225;-2.48498
 973.69;  236.580;  239.779;  235.642;-3.19898
 974.24;  219.758;  224.362;  220.206;-4.60398
 974.78;  217.482;  219.900;  215.873;-2.41798
 975.33;  246.617;  249.893;  245.834;-3.27598
 975.88;  231.165;  234.224;  229.422;-3.05898
 976.43;  227.761;  231.270;  227.200;-3.50898
 976.97;  221.733;  225.476;  220.970;-3.74298
 977.52;  211.352;  213.921;  212.176;-2.56898
 978.07;  257.436;  259.339;  261.140;-1.90298
 978.62;  247.009;  250.695;  249.999;-3.68597
 979.16;  244.229;  247.323;  245.899;-3.09398
 979.71;  211.378;  214.525;  211.338;-3.14698
 980.26;  232.318;  236.525;  233.353;-4.20698
 980.81;  231.226;  235.423;  230.718;-4.19698
 981.35;  254.973;  257.470;  254.809;-2.49698
 981.90;  243.985;  247.220;  241.517;-3.23498
 982.45;  240.344;  244.110;  240.405;-3.76598
 982.99;  243.225;  246.699;  242.664;-3.47398
 983.54;  241.056;  244.785;  239.293;-3.72898
 984.09;  232.102;  235.596;  231.355;-3.49398
 984.63;  229.546;  232.859;  228.448;-3.31298
 985.18;  242.172;  245.675;  242.377;-3.50298
 985.73;  236.506;  240.310;  235.860;-3.80398
 986.27;  225.549;  229.021;  224.967;-3.47198
 986.82;  233.782;  236.714;  233.190;-2.93198
 987.37;  249.057;  252.461;  246.808;-3.40398
 987.91;  239.153;  242.035;  236.652;-2.88198
 988.46;  247.081;  250.907;  247.721;-3.82597
 989.01;  239.008;  243.046;  237.572;-4.03798
 989.55;  240.953;  245.620;  241.214;-4.66698
 990.10;  249.391;  252.758;  248.030;-3.36697
 990.65;  264.262;  267.722;  262.831;-3.45998
 991.19;  236.921;  240.603;  236.217;-3.68198
 991.74;  255.806;  258.469;  254.016;-2.66298
 992.29;  243.013;  247.749;  243.190;-4.73598
 992.83;  256.717;  259.957;  254.085;-3.23998
 993.38;  249.523;  253.418;  247.359;-3.89498
 993.92;  228.795;  231.532;  226.472;-2.73698
 994.47;  217.802;  221.206;  216.807;-3.40398
 995.02;  237.998;  240.940;  236.735;-2.94198
 995.56;  257.121;  261.084;  256.692;-3.96297
 996.11;  247.322;  250.205;  246.882;-2.88297
 996.65;  247.919;  251.539;  247.876;-3.61998
 997.20;  241.772;  246.573;  240.294;-4.80098
 997.75;  240.902;  244.305;  239.437;-3.40298
 998.29;  217.283;  220.107;  216.133;-2.82398
 998.84;  245.836;  250.724;  245.329;-4.88797
 999.38;  247.077;  250.042;  244.812;-2.96498
 999.93;  263.146;  267.209;  261.675;-4.06297
1000.47;  261.457;  264.324;  260.831;-2.86697
1001.02;  253.705;  257.092;  253.386;-3.38698
1001.56;  241.206;  244.824;  239.780;-3.61798
1002.11;  232.280;  234.738;  230.445;-2.45798
1002.65;  225.014;  228.565;  223.243;-3.55098
1003.20;  234.666;  237.052;  231.881;-2.38598
1003.75;  266.831;  269.606;  266.036;-2.77498
1004.29;  234.695;  238.538;  233.303;-3.84298
1004.84;  220.216;  223.671;  220.546;-3.45498
1005.38;  222.217;  227.224;  222.859;-5.00698
1005.93;  242.380;  246.906;  241.364;-4.52598
1006.47;  220.719;  224.462;  220.692;-3.74298
1007.02;  228.581;  231.833;  227.662;-3.25198
1007.56;  244.190;  247.433;  242.798;-3.24298
1008.11;  249.664;  252.720;  249.411;-3.05598
1008.65;  208.803;  212.672;  207.079;-3.86898
1009.19;  235.995;  240.140;  236.390;-4.14498
1009.74;  231.248;  236.623;  231.223;-5.37498
1010.28;  234.784;  238.127;  234.215;-3.34298
1010.83;  243.448;  246.572;  242.437;-3.12398
1011.37;  236.055;  240.282;  235.037;-4.22698
1011.92;  235.377;  238.095;  235.208;-2.71798
1012.46;  229.647;  231.437;  230.410;-1.78998
1013.01;  271.854;  267.813;  282.128; 4.04102
1013.55;  245.424;  236.714;  261.377; 8.71002
1014.09;  235.835;  232.679;  247.080; 3.15602
1014.64;  230.201;  232.536;  235.199;-2.33498
1015.18;  225.998;  228.881;  226.875;-2.88298
1015.73;  219.849;  223.733;  221.345;-3.88398
1016.27;  241.425;  244.244;  239.850;-2.81898
1016.82;  233.784;  237.116;  232.899;-3.33198
1017.36;  225.742;  228.573;  224.463;-2.83098
1017.90;  215.097;  219.031;  214.821;-3.93398
1018.45;  209.945;  215.172;  209.010;-5.22698
1018.99;  210.998;  214.070;  213.271;-3.07198
1019.53;  201.082;  203.228;  199.948;-2.14598
1020.08;  228.839;  230.973;  227.485;-2.13398
1020.62;  230.574;  232.690;  229.827;-2.11598
1021.17;  233.469;  236.888;  232.392;-3.41898
1021.71;  233.610;  236.822;  232.866;-3.21198
1022.25;  241.537;  244.782;  239.904;-3.24498
1022.80;  214.449;  218.831;  214.907;-4.38198
1023.34;  212.873;  216.610;  211.512;-3.73698
1023.88;  227.561;  231.207;  224.103;-3.64598
1024.43;  228.605;  232.772;  229.391;-4.16698
1024.97;  233.269;  237.512;  233.233;-4.24298
1025.51;  213.979;  216.658;  213.395;-2.67898
1026.06;  229.110;  232.703;  227.836;-3.59298
1026.60;  233.495;  236.932;  233.723;-3.43698
1027.14;  246.032;  249.520;  244.366;-3.48798
1027.69;  234.824;  237.157;  232.097;-2.33298
1028.23;  228.862;  231.829;  228.253;-2.96698
1028.77;  212.778;  216.286;  212.300;-3.50798
1029.31;  225.223;  228.645;  224.128;-3.42198
1029.86;  218.820;  220.976;  216.083;-2.15598
1030.40;  263.331;  266.957;  262.077;-3.62598
1030.94;  232.670;  235.602;  232.446;-2.93198
1031.48;  242.035;  244.798;  240.883;-2.76298
1032.03;  229.608;  232.974;  227.501;-3.36598
1032.57;  229.970;  233.237;  229.752;-3.26698
1033.11;  226.457;  229.291;  224.720;-2.83398
1033.65;  216.329;  218.770;  213.877;-2.44098
1034.20;  235.713;  239.433;  235.433;-3.71998
1034.74;  233.474;  237.444;  231.019;-3.96998
1035.28;  232.187;  235.133;  231.832;-2.94598
1035.82;  210.176;  212.102;  209.377;-1.92598
1036.37;  222.578;  227.358;  221.872;-4.77998
1036.91;  247.816;  252.225;  248.405;-4.40898
1037.45;  238.772;  242.746;  237.398;-3.97398
1037.99;  229.549;  232.628;  227.965;-3.07898
1038.53;  229.936;  233.175;  229.202;-3.23898
1039.08;  218.117;  221.923;  217.129;-3.80598
1039.62;  217.550;  221.811;  215.711;-4.26098
1040.16;  221.305;  225.614;  220.940;-4.30898
1040.70;  227.590;  231.381;  226.788;-3.79098
1041.24;  244.203;  247.323;  243.321;-3.11998
1041.79;  218.794;  221.850;  217.096;-3.05598
1042.33;  224.833;  228.640;  223.935;-3.80698
1042.87;  218.285;  221.520;  216.620;-3.23498
1043.41;  223.451;  227.631;  221.794;-4.17998
1043.95;  235.537;  238.994;  234.674;-3.45698
1044.49;  204.458;  207.804;  204.268;-3.34598
1045.04;  236.008;  238.040;  234.685;-2.03198
1045.58;  227.593;  230.631;  225.050;-3.03798
1046.12;  256.857;  261.397;  256.429;-4.53997
1046.66;  238.221;  241.752;  239.465;-3.53098
1047.20;  218.654;  222.346;  220.647;-3.69198
1047.74;  254.501;  257.442;  252.264;-2.94098
1048.28;  235.812;  237.555;  234.715;-1.74298
1048.82;  250.829;  254.263;  249.899;-3.43398
1049.36;  253.104;  257.431;  252.537;-4.32698
1049.91;  242.375;  244.699;  240.839;-2.32398
1050.45;  233.924;  237.715;  233.443;-3.79098
1050.99;  252.861;  257.972;  253.565;-5.11097
1051.53;  258.317;  261.630;  258.198;-3.31298
1052.07;  231.259;  235.932;  231.546;-4.67298
1052.61;  233.297;  237.559;  231.951;-4.26198
1053.15;  243.089;  247.051;  242.976;-3.96198
1053.69;  236.195;  239.441;  236.380;-3.24598
1054.23;  240.791;  245.890;  241.171;-5.09898
1054.77;  258.090;  260.772;  255.399;-2.68198
1055.31;  241.035;  244.026;  239.084;-2.99098
1055.85;  232.046;  236.281;  232.209;-4.23498
1056.39;  232.957;  236.749;  231.936;-3.79198
1056.93;  241.335;  245.006;  240.459;-3.67098
1057.47;  252.560;  255.638;  250.912;-3.07798
1058.01;  249.145;  253.134;  248.715;-3.98898
1058.55;  245.861;  250.173;  246.950;-4.31198
1059.09;  246.971;  250.724;  246.105;-3.75297
1059.63;  254.562;  258.518;  252.957;-3.95598
1060.17;  267.375;  271.402;  266.822;-4.02698
1060.71;  233.063;  236.022;  231.876;-2.95898
1061.25;  244.921;  248.550;  243.753;-3.62898
1061.79;  244.961;  249.245;  243.820;-4.28398
1062.33;  237.835;  241.609;  237.818;-3.77398
1062.87;  268.247;  272.206;  267.178;-3.95898
1063.41;  247.274;  250.170;  245.913;-2.89598
1063.95;  253.363;  257.994;  253.445;-4.63098
1064.49;  235.822;  238.396;  236.618;-2.57398
1065.03;  293.358;  296.704;  291.184;-3.34598
1065.57;  265.360;  270.216;  263.442;-4.85598
1066.11;  246.850;  250.404;  245.700;-3.55398
1066.65;  243.415;  247.966;  242.225;-4.55098
1067.19;  260.600;  264.328;  258.730;-3.72798
1067.73;  270.461;  272.864;  267.504;-2.40298
1068.27;  237.305;  242.198;  236.573;-4.89298
1068.81;  243.776;  248.219;  242.997;-4.44298
1069.35;  269.038;  272.494;  267.481;-3.45598
1069.89;  236.318;  239.494;  234.383;-3.17598
1070.43;  259.736;  263.514;  259.943;-3.77798
1070.96;  257.039;  261.175;  254.939;-4.13597
1071.50;  256.905;  259.205;  253.966;-2.29997
1072.04;  251.844;  254.928;  249.432;-3.08398
1072.58;  256.900;  260.967;  255.917;-4.06698
1073.12;  268.469;  270.697;  266.714;-2.22798
1073.66;  239.032;  242.694;  237.410;-3.66198
1074.20;  246.746;  250.650;  248.196;-3.90398
1074.74;  254.096;  258.221;  253.551;-4.12498
1075.27;  243.849;  246.118;  243.897;-2.26898
1075.81;  244.226;  247.862;  243.029;-3.63598
1076.35;  251.123;  254.689;  249.120;-3.56598
1076.89;  253.252;  256.565;  251.325;-3.31297
1077.43;  269.069;  272.947;  267.999;-3.87798
1077.97;  257.588;  260.391;  256.720;-2.80298
1078.50;  253.885;  258.435;  252.985;-4.54997
1079.04;  245.098;  248.393;  242.128;-3.29498
1079.58;  251.569;  254.955;  249.444;-3.38597
1080.12;  246.276;  250.083;  245.012;-3.80698
1080.66;  262.054;  266.546;  260.419;-4.49197
1081.20;  239.889;  244.011;  239.541;-4.12198
1081.73;  236.223;  239.497;  233.654;-3.27398
1082.27;  255.154;  260.170;  252.998;-5.01598
1082.81;  258.267;  262.334;  257.378;-4.06698
1083.35;  250.453;  253.962;  248.599;-3.50898
1083.88;  249.534;  254.193;  248.179;-4.65898
1084.42;  266.095;  268.895;  265.394;-2.79998
1084.96;  243.440;  245.945;  241.314;-2.50498
1085.50;  252.058;  254.803;  249.738;-2.74498
1086.04;  247.680;  250.790;  246.985;-3.10998
1086.57;  273.009;  277.019;  271.691;-4.00998
1087.11;  250.525;  253.851;  249.705;-3.32598
1087.65;  240.830;  245.599;  240.281;-4.76898
1088.19;  265.771;  268.889;  264.683;-3.11798
1088.72;  250.673;  252.668;  249.220;-1.99498
1089.26;  242.979;  246.426;  240.830;-3.44698
1089.80;  236.065;  239.921;  235.334;-3.85598
1090.33;  274.931;  277.901;  273.528;-2.96998
1090.87;  230.125;  233.943;  227.543;-3.81798
1091.41;  234.749;  238.609;  233.488;-3.85998
1091.95;  253.065;  256.121;  250.943;-3.05598
1092.48;  263.176;  268.358;  263.655;-5.18198
1093.02;  236.346;  240.535;  235.415;-4.18898
1093.56;  255.843;  259.101;  254.412;-3.25798
1094.09;  231.190;  234.847;  229.661;-3.65698
1094.63;  232.132;  235.308;  230.537;-3.17598
1095.17;  237.284;  241.362;  236.861;-4.07798
1095.70;  252.714;  255.838;  250.037;-3.12398
1096.24;  238.594;  242.660;  237.502;-4.06598
1096.78;  236.187;  239.928;  234.609;-3.74098
1097.31;  238.142;  242.207;  237.279;-4.06498
1097.85;  245.129;  248.544;  243.933;-3.41498
1098.39;  228.827;  232.669;  227.157;-3.84198
1098.92;  243.613;  246.951;  243.537;-3.33798
1099.46;  250.538;  254.286;  249.128;-3.74797
1099.99;  240.980;  244.255;  239.172;-3.27498
1100.53;  245.420;  249.382;  244.501;-3.96197

