
Integration time [ms]:   0.100
Averaging Nr. [scans]: 1000
Smoothing Nr. [pixels]: 0
Data measured with spectrometer [name]: 7213323SP
Wave   ;Sample   ;Dark     ;Reference;Scope Corrected for Dark
[nm]   ;[counts] ;[counts] ;[counts] ;[counts] 

 175.65;  183.078;  185.783;  180.414;-2.70518
 176.25;  203.881;  205.927;  201.051;-2.04590
 176.85;  200.020;  202.683;  197.041;-2.66320
 177.45;  200.777;  203.508;  199.894;-2.73026
 178.05;  190.991;  193.685;  190.085;-2.69315
 178.65;  190.134;  193.947;  189.195;-3.81350
 179.25;  187.577;  189.491;  186.282;-1.91370
 179.85;  193.939;  197.291;  191.669;-3.35142
 180.45;  185.530;  188.606;  185.031;-3.07630
 181.05;  227.969;  231.340;  226.588;-3.37086
 181.65;  188.533;  192.091;  188.083;-3.55856
 182.25;  209.585;  211.949;  206.883;-2.36343
 182.86;  204.484;  207.996;  202.121;-3.51195
 183.46;  203.300;  206.147;  200.708;-2.84666
 184.06;  186.283;  189.341;  185.033;-3.05810
 184.66;  167.384;  169.990;  164.643;-2.60647
 185.26;  213.523;  213.061;  214.998; 0.46281
 185.86;  192.288;  193.960;  191.880;-1.67208
 186.46;  212.377;  214.994;  211.614;-2.61786
 187.06;  194.144;  196.902;  194.406;-2.75828
 187.66;  217.079;  219.094;  216.525;-2.01476
 188.26;  221.083;  223.645;  220.940;-2.56158
 188.86;  200.753;  202.311;  200.640;-1.55781
 189.46;  197.420;  199.956;  198.052;-2.53618
 190.06;  188.180;  190.583;  188.358;-2.40293
 190.66;  194.500;  196.091;  194.493;-1.59183
 191.26;  212.124;  214.076;  212.779;-1.95197
 191.86;  208.641;  210.199;  207.622;-1.55842
 192.46;  206.805;  209.408;  206.770;-2.60299
 193.06;  208.010;  210.877;  207.841;-2.86735
 193.66;  199.162;  200.410;  199.942;-1.24838
 194.26;  216.433;  217.694;  218.472;-1.26060
 194.86;  182.957;  184.639;  184.097;-1.68255
 195.46;  190.775;  191.975;  189.176;-1.20035
 196.06;  202.781;  205.195;  202.533;-2.41406
 196.66;  181.282;  183.302;  181.286;-2.01955
 197.26;  180.018;  182.502;  180.080;-2.48396
 197.86;  210.276;  212.390;  210.197;-2.11410
 198.46;  178.836;  180.583;  179.072;-1.74674
 199.06;  206.832;  209.579;  206.441;-2.74717
 199.66;  194.326;  197.179;  194.867;-2.85315
 200.26;  184.822;  186.929;  185.670;-2.10681
 200.85;  202.618;  204.678;  202.080;-2.06023
 201.45;  193.999;  196.412;  195.434;-2.41304
 202.05;  195.078;  197.534;  195.645;-2.45608
 202.65;  189.969;  193.343;  189.896;-3.37440
 203.25;  181.404;  182.811;  181.206;-1.40691
 203.85;  195.420;  197.717;  195.949;-2.29682
 204.45;  225.278;  226.232;  226.293;-0.95426
 205.05;  170.639;  172.215;  170.599;-1.57606
 205.65;  177.719;  180.256;  177.581;-2.53703
 206.25;  204.970;  206.201;  205.331;-1.23099
 206.85;  182.887;  186.155;  183.435;-3.26822
 207.45;  191.342;  193.446;  191.637;-2.10369
 208.05;  180.081;  182.052;  180.242;-1.97103
 208.65;  182.353;  183.924;  182.976;-1.57183
 209.25;  174.825;  177.281;  174.426;-2.45672
 209.84;  203.732;  204.778;  203.273;-1.04658
 210.44;  183.577;  185.831;  184.524;-2.25319
 211.04;  218.900;  220.826;  219.523;-1.92558
 211.64;  184.453;  186.519;  184.227;-2.06577
 212.24;  195.626;  197.061;  196.408;-1.43501
 212.84;  190.410;  192.686;  191.061;-2.27638
 213.44;  178.048;  179.742;  179.735;-1.69408
 214.04;  177.792;  179.422;  178.889;-1.62999
 214.64;  194.245;  196.010;  196.183;-1.76508
 215.24;  174.650;  176.617;  175.860;-1.96639
 215.83;  196.146;  197.577;  195.308;-1.43155
 216.43;  162.251;  165.306;  164.475;-3.05490
 217.03;  172.254;  173.213;  173.835;-0.95938
 217.63;  176.954;  178.375;  178.008;-1.42108
 218.23;  186.917;  188.109;  187.688;-1.19142
 218.83;  177.511;  179.774;  179.547;-2.26290
 219.43;  175.741;  176.967;  177.218;-1.22617
 220.03;  166.314;  169.902;  168.913;-3.58792
 220.62;  173.181;  174.413;  174.999;-1.23131
 221.22;  184.634;  184.038;  185.496; 0.59652
 221.82;  189.128;  189.802;  189.660;-0.67433
 222.42;  166.138;  167.270;  168.935;-1.13172
 223.02;  181.124;  181.217;  182.327;-0.09282
 223.62;  171.104;  171.654;  175.421;-0.54969
 224.22;  191.364;  191.896;  195.708;-0.53265
 224.81;  185.350;  185.750;  190.209;-0.39949
 225.41;  184.842;  185.009;  189.807;-0.16622
 226.01;  170.900;  170.181;  175.050; 0.71940
 226.61;  172.206;  172.916;  178.854;-0.71007
 227.21;  173.661;  173.765;  178.313;-0.10446
 227.81;  199.052;  198.744;  205.112; 0.30786
 228.40;  167.038;  166.154;  172.708; 0.88400
 229.00;  174.195;  173.395;  181.048; 0.79997
 229.60;  177.527;  176.512;  183.766; 1.01467
 230.20;  202.652;  201.884;  211.512; 0.76842
 230.80;  163.758;  163.338;  172.378; 0.42002
 231.39;  161.568;  160.293;  169.722; 1.27498
 231.99;  179.715;  178.183;  189.251; 1.53161
 232.59;  207.477;  204.573;  217.599; 2.90344
 233.19;  176.138;  173.410;  188.513; 2.72738
 233.79;  188.956;  186.319;  202.434; 2.63633
 234.38;  174.858;  172.812;  190.099; 2.04586
 234.98;  182.043;  178.647;  196.074; 3.39679
 235.58;  185.556;  181.406;  201.586; 4.14980
 236.18;  198.480;  193.264;  212.456; 5.21587
 236.78;  185.857;  182.090;  202.247; 3.76717
 237.37;  199.480;  191.811;  218.441; 7.66946
 237.97;  202.870;  197.556;  224.600; 5.31392
 238.57;  206.626;  198.851;  226.967; 7.77485
 239.17;  175.555;  168.430;  198.792; 7.12476
 239.76;  196.518;  187.085;  220.862; 9.43342
 240.36;  185.660;  176.163;  212.675; 9.49623
 240.96;  214.936;  204.218;  243.349;10.71771
 241.56;  183.978;  173.281;  211.808;10.69699
 242.15;  192.421;  179.736;  223.065;12.68506
 242.75;  212.056;  198.403;  246.418;13.65254
 243.35;  189.682;  177.349;  226.927;12.33262
 243.95;  203.242;  186.928;  243.754;16.31451
 244.54;  217.439;  201.186;  259.178;16.25341
 245.14;  213.329;  194.469;  258.872;18.85980
 245.74;  231.366;  212.340;  280.750;19.02547
 246.34;  205.276;  183.537;  260.989;21.73876
 246.93;  221.434;  197.063;  283.881;24.37178
 247.53;  181.262;  153.235;  263.537;28.02731
 248.13;  231.480;  193.395;  330.762;38.08573
 248.73;  220.946;  181.770;  312.884;39.17599
 249.32;  222.281;  185.280;  307.340;37.00131
 249.92;  214.007;  175.296;  313.021;38.71083
 250.52;  239.242;  191.298;  364.988;47.94380
 251.11;  253.216;  192.564;  413.921;60.65212
 251.71;  294.599;  207.719;  535.383;86.88039
 252.31;  360.907;  163.680; 1116.602;197.22737
 252.91; 2871.231;  187.361;12306.623;2683.86910
 253.50;11093.613;  154.812;38070.578;10938.80101
 254.10;11892.637;  198.001;33115.004;11694.63565
 254.70; 3155.701;  166.640; 7397.543;2989.06181
 255.29;  396.358;  201.462;  779.898;194.89587
 255.89;  273.586;  184.944;  427.893;88.64183
 256.49;  228.558;  168.140;  337.986;60.41776
 257.08;  220.455;  174.424;  312.391;46.03094
 257.68;  225.947;  190.194;  307.577;35.75299
 258.28;  217.261;  187.081;  290.710;30.18017
 258.87;  218.310;  191.826;  281.589;26.48403
 259.47;  201.409;  177.615;  256.904;23.79392
 260.07;  206.925;  184.430;  258.984;22.49473
 260.66;  181.568;  160.137;  230.508;21.43037
 261.26;  228.424;  209.045;  273.389;19.37925
 261.86;  218.920;  200.756;  260.153;18.16356
 262.45;  192.853;  176.279;  231.401;16.57392
 263.05;  190.843;  176.522;  230.199;14.32089
 263.65;  191.478;  178.642;  226.449;12.83537
 264.24;  205.483;  193.555;  241.350;11.92776
 264.84;  220.636;  205.161;  281.498;15.47541
 265.44;  204.527;  182.325;  273.867;22.20264
 266.03;  191.930;  177.647;  231.179;14.28237
 266.63;  174.378;  167.718;  197.785; 6.66069
 267.23;  189.424;  185.031;  211.605; 4.39253
 267.82;  169.768;  164.037;  187.883; 5.73064
 268.42;  179.075;  172.003;  194.649; 7.07192
 269.01;  177.943;  172.399;  194.558; 5.54471
 269.61;  186.857;  181.283;  204.840; 5.57444
 270.21;  189.663;  185.189;  207.045; 4.47349
 270.80;  208.273;  202.637;  224.414; 5.63591
 271.40;  170.201;  165.255;  183.775; 4.94587
 271.99;  204.987;  200.379;  218.373; 4.60762
 272.59;  161.486;  157.284;  177.199; 4.20171
 273.19;  172.050;  168.338;  186.254; 3.71223
 273.78;  160.878;  156.316;  175.177; 4.56155
 274.38;  175.241;  170.500;  193.021; 4.74185
 274.97;  186.585;  180.598;  212.682; 5.98683
 275.57;  188.653;  181.240;  215.124; 7.41298
 276.17;  157.346;  151.526;  175.473; 5.82078
 276.76;  184.071;  179.919;  200.892; 4.15272
 277.36;  180.648;  176.316;  195.657; 4.33266
 277.95;  187.035;  181.802;  202.104; 5.23326
 278.55;  170.545;  165.621;  183.571; 4.92351
 279.14;  187.868;  182.527;  204.050; 5.34152
 279.74;  187.340;  181.713;  211.006; 5.62642
 280.34;  175.180;  166.854;  207.562; 8.32635
 280.93;  213.070;  202.511;  243.101;10.55872
 281.53;  169.751;  161.140;  204.471; 8.61090
 282.12;  195.810;  184.315;  242.247;11.49552
 282.72;  189.100;  175.619;  237.668;13.48080
 283.31;  193.365;  183.090;  225.194;10.27574
 283.91;  168.638;  163.396;  189.204; 5.24126
 284.50;  195.324;  190.107;  209.412; 5.21717
 285.10;  204.763;  201.548;  220.160; 3.21540
 285.69;  167.082;  161.840;  181.279; 5.24204
 286.29;  191.671;  186.696;  205.333; 4.97492
 286.89;  180.255;  175.323;  193.509; 4.93231
 287.48;  185.204;  181.152;  198.821; 4.05256
 288.08;  200.450;  195.308;  213.941; 5.14217
 288.67;  184.276;  176.735;  211.533; 7.54092
 289.27;  191.513;  177.393;  238.460;14.12027
 289.86;  187.753;  175.474;  224.048;12.27853
 290.46;  165.906;  160.923;  182.953; 4.98295
 291.05;  178.197;  175.660;  190.854; 2.53708
 291.65;  174.525;  169.699;  186.464; 4.82599
 292.24;  200.458;  195.774;  217.061; 4.68397
 292.84;  183.525;  179.766;  198.640; 3.75855
 293.43;  188.563;  184.841;  201.754; 3.72186
 294.03;  185.222;  182.158;  197.677; 3.06479
 294.62;  193.013;  188.921;  205.562; 4.09129
 295.22;  173.080;  169.760;  187.902; 3.31992
 295.81;  189.563;  183.134;  227.659; 6.42981
 296.41;  257.576;  172.707;  618.639;84.86890
 297.00;  364.153;  187.888;  879.669;176.26454
 297.60;  267.938;  177.385;  448.744;90.55307
 298.19;  196.263;  182.774;  234.456;13.48865
 298.78;  185.986;  178.714;  208.659; 7.27130
 299.38;  169.397;  165.210;  184.146; 4.18692
 299.97;  195.819;  192.233;  207.510; 3.58558
 300.57;  183.251;  179.790;  193.837; 3.46057
 301.16;  140.408;  137.570;  152.734; 2.83795
 301.76;  184.980;  175.571;  237.006; 9.40842
 302.35;  208.996;  178.039;  322.268;30.95777
 302.95;  224.219;  195.801;  300.113;28.41874
 303.54;  162.979;  154.947;  188.905; 8.03234
 304.14;  164.014;  159.794;  182.352; 4.21983
 304.73;  196.537;  192.017;  213.586; 4.52070
 305.32;  186.464;  182.304;  200.159; 4.16022
 305.92;  165.097;  161.694;  180.386; 3.40206
 306.51;  161.699;  158.503;  174.896; 3.19522
 307.11;  179.314;  177.229;  194.701; 2.08513
 307.70;  161.129;  156.496;  174.665; 4.63266
 308.29;  162.936;  159.940;  177.264; 2.99526
 308.89;  171.908;  167.440;  185.946; 4.46876
 309.48;  133.048;  128.932;  149.281; 4.11616
 310.08;  171.817;  168.493;  192.005; 3.32344
 310.67;  172.528;  168.955;  194.927; 3.57254
 311.27;  162.360;  153.804;  202.344; 8.55570
 311.86;  204.710;  160.259;  434.649;44.45128
 312.45;  378.522;  166.112; 1292.883;212.41029
 313.05;  643.540;  176.059; 2220.983;467.48127
 313.64;  645.946;  170.333; 1904.856;475.61279
 314.23;  379.021;  159.036;  905.625;219.98516
 314.83;  247.328;  183.457;  437.262;63.87129
 315.42;  196.858;  153.736;  324.042;43.12197
 316.02;  190.597;  157.548;  288.107;33.04974
 316.61;  175.665;  152.189;  258.543;23.47595
 317.20;  185.568;  165.999;  253.209;19.56929
 317.80;  174.547;  160.221;  232.493;14.32592
 318.39;  178.641;  163.795;  233.203;14.84572
 318.98;  203.998;  193.744;  247.328;10.25358
 319.58;  178.442;  169.828;  216.003; 8.61361
 320.17;  175.858;  168.575;  213.990; 7.28229
 320.76;  176.871;  168.871;  212.286; 7.99953
 321.36;  174.954;  169.357;  202.238; 5.59698
 321.95;  171.440;  167.621;  195.718; 3.81940
 322.55;  191.531;  186.082;  213.062; 5.44952
 323.14;  157.722;  152.739;  181.970; 4.98374
 323.73;  160.449;  154.753;  184.904; 5.69580
 324.33;  180.614;  176.503;  201.519; 4.11102
 324.92;  173.590;  170.029;  192.560; 3.56038
 325.51;  170.005;  168.343;  187.946; 1.66181
 326.10;  164.962;  162.183;  181.914; 2.77813
 326.70;  177.002;  173.882;  193.516; 3.11952
 327.29;  171.104;  169.970;  187.224; 1.13357
 327.88;  167.568;  165.081;  182.818; 2.48633
 328.48;  178.789;  176.911;  198.026; 1.87820
 329.07;  183.395;  180.658;  199.266; 2.73688
 329.66;  173.356;  170.927;  189.404; 2.42839
 330.26;  177.783;  176.096;  192.723; 1.68734
 330.85;  182.258;  179.929;  195.784; 2.32923
 331.44;  176.571;  175.423;  189.246; 1.14822
 332.04;  178.292;  176.871;  189.683; 1.42096
 332.63;  165.626;  164.646;  174.903; 0.97979
 333.22;  177.665;  176.877;  195.090; 0.78709
 333.81;  190.573;  180.994;  235.574; 9.57904
 334.41;  193.385;  180.880;  249.291;12.50457
 335.00;  198.906;  190.775;  222.102; 8.13109
 335.59;  175.734;  175.896;  182.714;-0.16198
 336.18;  186.133;  186.918;  190.339;-0.78473
 336.78;  164.528;  165.381;  169.251;-0.85307
 337.37;  169.670;  171.039;  174.332;-1.36902
 337.96;  225.929;  227.172;  229.099;-1.24298
 338.55;  197.369;  198.467;  200.760;-1.09787
 339.15;  185.082;  185.489;  187.809;-0.40787
 339.74;  173.033;  174.451;  176.051;-1.41866
 340.33;  169.722;  171.198;  172.264;-1.47564
 340.92;  181.747;  183.361;  185.726;-1.61357
 341.52;  175.793;  177.029;  179.138;-1.23613
 342.11;  173.160;  174.246;  175.982;-1.08628
 342.70;  159.872;  160.769;  162.731;-0.89648
 343.29;  177.079;  179.040;  180.213;-1.96173
 343.89;  164.658;  164.528;  166.492; 0.12963
 344.48;  177.244;  177.707;  181.187;-0.46337
 345.07;  154.895;  155.616;  158.639;-0.72134
 345.66;  183.620;  184.240;  186.801;-0.62025
 346.25;  169.129;  169.051;  171.893; 0.07811
 346.85;  181.977;  181.558;  184.557; 0.41858
 347.44;  160.234;  160.356;  164.301;-0.12237
 348.03;  168.338;  169.905;  173.428;-1.56777
 348.62;  189.606;  188.520;  191.544; 1.08518
 349.21;  164.431;  165.562;  170.085;-1.13085
 349.81;  177.425;  177.349;  180.710; 0.07547
 350.40;  164.243;  164.108;  168.015; 0.13516
 350.99;  159.603;  159.635;  164.370;-0.03198
 351.58;  171.004;  168.959;  175.213; 2.04475
 352.17;  144.695;  144.645;  150.727; 0.05027
 352.77;  170.460;  167.961;  175.698; 2.49880
 353.36;  177.352;  177.249;  184.777; 0.10289
 353.95;  179.449;  175.374;  183.532; 4.07550
 354.54;  158.285;  156.091;  164.695; 2.19448
 355.13;  176.565;  174.712;  185.178; 1.85295
 355.72;  181.561;  179.625;  189.178; 1.93603
 356.32;  169.726;  168.462;  179.394; 1.26345
 356.91;  189.957;  187.012;  198.581; 2.94518
 357.50;  174.602;  170.027;  181.332; 4.57573
 358.09;  167.822;  164.519;  175.948; 3.30302
 358.68;  173.111;  168.653;  182.453; 4.45767
 359.27;  183.527;  179.216;  193.575; 4.31033
 359.86;  190.569;  185.506;  201.175; 5.06340
 360.46;  162.923;  157.654;  174.085; 5.26883
 361.05;  179.248;  172.518;  190.340; 6.72954
 361.64;  174.810;  167.374;  185.086; 7.43674
 362.23;  179.545;  171.842;  194.651; 7.70339
 362.82;  172.060;  163.839;  192.502; 8.22029
 363.41;  179.780;  168.397;  207.875;11.38286
 364.00;  208.953;  176.951;  353.780;32.00121
 364.59;  454.148;  183.844; 1486.313;270.30427
 365.19;  794.585;  162.882; 2522.935;631.70255
 365.78;  640.477;  182.214; 1660.725;458.26259
 366.37;  330.756;  167.548;  731.492;163.20809
 366.96;  241.758;  169.481;  397.552;72.27675
 367.55;  204.908;  181.778;  244.913;23.12992
 368.14;  193.742;  178.387;  214.336;15.35493
 368.73;  197.756;  186.299;  218.072;11.45719
 369.32;  200.189;  188.947;  217.455;11.24231
 369.91;  192.682;  182.764;  209.941; 9.91772
 370.50;  203.682;  191.469;  219.302;12.21214
 371.09;  185.414;  175.202;  202.742;10.21223
 371.69;  181.161;  169.328;  198.902;11.83295
 372.28;  176.073;  165.466;  193.164;10.60714
 372.87;  211.543;  198.819;  229.204;12.72432
 373.46;  180.402;  166.853;  198.627;13.54859
 374.05;  200.275;  186.768;  218.578;13.50623
 374.64;  199.818;  185.885;  220.031;13.93347
 375.23;  190.238;  176.637;  210.680;13.60080
 375.82;  211.391;  195.424;  231.757;15.96720
 376.41;  207.237;  191.792;  227.311;15.44532
 377.00;  206.026;  189.710;  229.443;16.31602
 377.59;  198.759;  181.360;  220.777;17.39843
 378.18;  201.388;  181.502;  222.855;19.88550
 378.77;  198.176;  180.446;  221.661;17.73082
 379.36;  190.360;  171.454;  215.856;18.90642
 379.95;  211.660;  190.633;  236.560;21.02700
 380.54;  205.778;  184.731;  233.047;21.04638
 381.13;  220.214;  198.054;  245.947;22.15997
 381.72;  188.141;  165.850;  217.145;22.29107
 382.31;  222.160;  198.959;  250.810;23.20106
 382.90;  204.189;  181.443;  235.621;22.74548
 383.49;  252.270;  227.234;  281.132;25.03597
 384.08;  194.190;  169.673;  226.846;24.51727
 384.67;  220.425;  196.054;  252.682;24.37085
 385.26;  217.296;  189.966;  250.489;27.32984
 385.85;  202.402;  173.409;  233.966;28.99344
 386.44;  215.496;  187.634;  250.247;27.86170
 387.03;  226.708;  197.421;  264.478;29.28707
 387.62;  191.292;  163.338;  228.198;27.95370
 388.21;  226.333;  196.186;  263.020;30.14702
 388.80;  209.073;  178.007;  246.997;31.06516
 389.39;  214.162;  181.558;  253.348;32.60359
 389.98;  213.493;  181.266;  255.753;32.22738
 390.57;  212.163;  179.164;  255.437;32.99882
 391.16;  220.168;  186.709;  261.714;33.45877
 391.75;  228.630;  196.106;  269.716;32.52476
 392.34;  230.136;  196.263;  270.151;33.87286
 392.93;  226.769;  191.339;  268.909;35.43013
 393.52;  202.216;  166.840;  245.097;35.37590
 394.11;  207.357;  171.515;  250.044;35.84240
 394.70;  244.763;  210.391;  289.266;34.37195
 395.29;  227.211;  191.029;  271.052;36.18213
 395.88;  214.357;  178.836;  257.652;35.52022
 396.47;  231.283;  194.161;  273.788;37.12177
 397.05;  215.199;  178.850;  258.016;36.34884
 397.64;  228.600;  191.695;  272.155;36.90551
 398.23;  219.586;  183.469;  265.215;36.11643
 398.82;  220.677;  185.793;  265.767;34.88343
 399.41;  210.295;  175.624;  255.098;34.67054
 400.00;  208.154;  172.349;  252.393;35.80558
 400.59;  227.049;  193.132;  273.690;33.91758
 401.18;  223.301;  186.235;  269.091;37.06589
 401.77;  216.461;  180.529;  262.585;35.93240
 402.36;  230.228;  194.073;  281.319;36.15467
 402.95;  215.530;  176.865;  273.673;38.66578
 403.53;  245.296;  193.473;  388.007;51.82305
 404.12;  435.698;  179.919; 1465.115;255.77964
 404.71;  792.508;  177.698; 2583.144;614.81002
 405.30;  601.097;  158.448; 1466.161;442.64879
 405.89;  270.425;  172.611;  421.434;97.81347
 406.48;  234.330;  194.565;  292.922;39.76540
 407.07;  207.622;  166.267;  287.548;41.35405
 407.66;  251.193;  189.535;  386.657;61.65780
 408.24;  249.746;  190.223;  354.475;59.52268
 408.83;  230.181;  192.720;  276.672;37.46120
 409.42;  197.568;  167.033;  233.595;30.53463
 410.01;  212.722;  182.853;  246.646;29.86952
 410.60;  221.041;  193.582;  254.574;27.45903
 411.19;  190.825;  162.868;  222.268;27.95747
 411.78;  189.989;  164.580;  221.798;25.40840
 412.36;  194.769;  169.760;  225.619;25.00967
 412.95;  202.520;  177.768;  232.970;24.75242
 413.54;  224.448;  200.262;  253.428;24.18610
 414.13;  216.452;  190.969;  245.348;25.48289
 414.72;  197.707;  174.563;  226.540;23.14405
 415.31;  197.107;  175.308;  228.778;21.79892
 415.89;  179.577;  156.787;  208.684;22.79005
 416.48;  196.629;  176.500;  225.226;20.12919
 417.07;  188.800;  167.929;  214.352;20.87100
 417.66;  216.670;  197.499;  243.116;19.17167
 418.25;  202.554;  182.567;  226.683;19.98660
 418.83;  197.351;  178.673;  222.017;18.67783
 419.42;  202.221;  182.859;  226.599;19.36224
 420.01;  203.374;  185.601;  228.959;17.77344
 420.60;  202.163;  183.877;  225.851;18.28608
 421.19;  224.531;  207.381;  246.419;17.15053
 421.77;  178.007;  163.362;  202.087;14.64437
 422.36;  210.050;  192.702;  230.957;17.34876
 422.95;  196.686;  181.905;  218.066;14.78166
 423.54;  215.502;  199.674;  236.024;15.82782
 424.12;  205.438;  191.729;  225.095;13.70916
 424.71;  205.422;  191.024;  224.132;14.39856
 425.30;  210.286;  195.949;  231.290;14.33754
 425.89;  208.313;  194.640;  228.544;13.67263
 426.48;  198.982;  187.742;  220.262;11.23971
 427.06;  191.851;  180.325;  212.383;11.52564
 427.65;  206.854;  194.373;  225.779;12.48054
 428.24;  185.675;  173.882;  202.939;11.79374
 428.83;  195.396;  182.524;  213.653;12.87213
 429.41;  205.549;  195.650;  224.759; 9.89876
 430.00;  193.144;  182.279;  211.652;10.86438
 430.59;  227.046;  215.774;  246.183;11.27217
 431.17;  208.826;  197.939;  229.574;10.88663
 431.76;  210.419;  198.877;  230.916;11.54176
 432.35;  220.353;  207.590;  241.614;12.76322
 432.94;  215.838;  203.248;  244.729;12.59041
 433.52;  216.641;  200.767;  258.083;15.87335
 434.11;  230.797;  207.894;  298.172;22.90318
 434.70;  250.808;  198.296;  485.671;52.51108
 435.29;  691.630;  212.896; 2805.055;478.73407
 435.87; 1426.538;  206.719; 5150.592;1219.81843
 436.46; 1038.302;  210.740; 2722.762;827.56203
 437.05;  309.480;  183.603;  540.545;125.87705
 437.63;  228.062;  201.332;  274.666;26.73058
 438.22;  221.616;  203.832;  248.964;17.78408
 438.81;  228.364;  216.074;  253.576;12.28997
 439.39;  199.103;  190.341;  219.764; 8.76265
 439.98;  215.200;  206.514;  232.521; 8.68605
 440.57;  210.202;  201.749;  225.617; 8.45331
 441.15;  204.900;  197.083;  219.055; 7.81615
 441.74;  209.801;  203.234;  220.966; 6.56732
 442.33;  216.450;  210.182;  227.628; 6.26847
 442.91;  209.627;  204.665;  222.203; 4.96236
 443.50;  201.645;  195.081;  212.909; 6.56483
 444.09;  192.358;  187.318;  202.260; 5.04016
 444.67;  225.402;  220.137;  236.318; 5.26480
 445.26;  205.285;  200.047;  213.821; 5.23820
 445.85;  219.220;  213.759;  229.093; 5.46183
 446.43;  202.944;  197.378;  213.253; 5.56571
 447.02;  203.935;  199.195;  213.971; 4.74025
 447.61;  184.608;  180.285;  193.601; 4.32263
 448.19;  208.063;  205.617;  218.236; 2.44589
 448.78;  200.401;  196.885;  208.027; 3.51564
 449.36;  203.616;  200.522;  212.489; 3.09314
 449.95;  196.612;  194.136;  205.296; 2.47673
 450.54;  194.032;  190.992;  202.068; 3.03964
 451.12;  216.847;  213.227;  224.440; 3.62085
 451.71;  181.476;  178.246;  190.035; 3.22934
 452.30;  207.092;  203.933;  214.755; 3.15821
 452.88;  196.774;  193.927;  204.263; 2.84695
 453.47;  182.246;  178.301;  188.234; 3.94480
 454.05;  191.192;  187.381;  198.324; 3.81096
 454.64;  201.298;  198.638;  209.186; 2.65944
 455.22;  215.404;  213.190;  222.695; 2.21409
 455.81;  180.030;  177.234;  186.806; 2.79635
 456.40;  215.485;  213.844;  221.415; 1.64089
 456.98;  189.690;  187.286;  196.557; 2.40380
 457.57;  208.091;  205.449;  214.096; 2.64187
 458.15;  213.736;  212.635;  220.194; 1.10151
 458.74;  200.684;  197.409;  205.667; 3.27584
 459.33;  205.000;  203.185;  211.567; 1.81576
 459.91;  205.105;  204.309;  209.606; 0.79584
 460.50;  203.713;  201.867;  210.124; 1.84598
 461.08;  196.695;  194.525;  201.549; 2.16921
 461.67;  198.416;  197.717;  203.915; 0.69892
 462.25;  203.134;  202.160;  208.184; 0.97430
 462.84;  172.765;  171.143;  177.443; 1.62262
 463.42;  191.023;  190.005;  197.335; 1.01785
 464.01;  193.046;  192.089;  200.154; 0.95717
 464.59;  203.897;  204.720;  209.773;-0.82344
 465.18;  191.434;  190.661;  196.631; 0.77335
 465.76;  197.718;  195.978;  202.098; 1.74026
 466.35;  196.384;  195.076;  202.134; 1.30760
 466.94;  206.391;  205.588;  211.128; 0.80296
 467.52;  216.592;  215.546;  220.402; 1.04535
 468.11;  180.671;  181.263;  185.451;-0.59201
 468.69;  175.526;  175.283;  178.777; 0.24253
 469.28;  165.169;  165.781;  169.570;-0.61188
 469.86;  201.356;  201.956;  204.795;-0.60065
 470.45;  195.653;  195.976;  198.769;-0.32349
 471.03;  176.487;  176.987;  179.928;-0.49992
 471.62;  188.181;  187.494;  189.847; 0.68688
 472.20;  191.227;  191.403;  194.726;-0.17587
 472.79;  226.052;  226.987;  228.835;-0.93565
 473.37;  190.146;  189.814;  192.908; 0.33228
 473.95;  189.266;  189.323;  192.703;-0.05713
 474.54;  148.276;  149.139;  152.162;-0.86278
 475.12;  215.705;  215.707;  218.210;-0.00208
 475.71;  196.140;  196.860;  199.441;-0.72028
 476.29;  199.262;  200.246;  203.200;-0.98333
 476.88;  175.885;  176.462;  178.540;-0.57771
 477.46;  177.279;  177.365;  179.356;-0.08603
 478.05;  184.088;  185.347;  186.478;-1.25901
 478.63;  187.801;  186.990;  191.034; 0.81129
 479.22;  168.738;  169.617;  170.278;-0.87901
 479.80;  193.252;  193.848;  195.363;-0.59533
 480.38;  189.117;  188.725;  191.085; 0.39211
 480.97;  171.820;  173.631;  174.897;-1.81030
 481.55;  183.576;  184.528;  186.205;-0.95194
 482.14;  205.156;  206.846;  207.401;-1.68967
 482.72;  180.028;  180.594;  182.124;-0.56587
 483.31;  177.266;  178.196;  177.897;-0.92942
 483.89;  181.216;  182.203;  182.403;-0.98730
 484.47;  181.007;  181.411;  182.354;-0.40341
 485.06;  170.859;  171.398;  172.672;-0.53846
 485.64;  193.865;  195.727;  195.664;-1.86207
 486.23;  198.809;  200.730;  200.398;-1.92062
 486.81;  192.238;  193.913;  194.241;-1.67496
 487.39;  162.441;  162.998;  164.354;-0.55703
 487.98;  175.549;  176.232;  176.507;-0.68255
 488.56;  204.440;  205.172;  205.349;-0.73169
 489.15;  173.858;  175.879;  176.203;-2.02125
 489.73;  177.911;  179.611;  179.606;-1.70021
 490.31;  176.566;  177.484;  179.772;-0.91773
 490.90;  176.835;  178.035;  182.159;-1.19973
 491.48;  183.043;  183.404;  192.437;-0.36116
 492.06;  196.436;  196.254;  201.679; 0.18190
 492.65;  166.138;  167.123;  168.469;-0.98459
 493.23;  153.657;  155.512;  155.351;-1.85534
 493.82;  187.991;  190.279;  188.929;-2.28783
 494.40;  153.105;  156.063;  154.592;-2.95837
 494.98;  172.528;  173.980;  173.304;-1.45144
 495.57;  152.791;  155.023;  154.804;-2.23184
 496.15;  151.257;  153.475;  152.224;-2.21839
 496.73;  165.797;  166.732;  165.567;-0.93457
 497.32;  185.629;  188.806;  185.987;-3.17666
 497.90;  184.024;  185.243;  184.261;-1.21930
 498.48;  159.997;  163.264;  161.229;-3.26704
 499.07;  165.123;  168.933;  167.574;-3.81005
 499.65;  184.146;  187.241;  185.883;-3.09577
 500.23;  150.361;  152.838;  150.126;-2.47737
 500.82;  161.323;  164.071;  163.825;-2.74845
 501.40;  165.555;  168.176;  166.053;-2.62086
 501.98;  179.034;  180.379;  178.435;-1.34451
 502.56;  190.817;  193.014;  192.690;-2.19764
 503.15;  191.149;  193.763;  191.639;-2.61473
 503.73;  174.188;  176.916;  175.410;-2.72793
 504.31;  177.903;  179.871;  178.659;-1.96896
 504.90;  185.395;  187.818;  186.738;-2.42371
 505.48;  198.474;  201.702;  199.199;-3.22730
 506.06;  182.671;  186.348;  184.710;-3.67705
 506.64;  169.444;  172.437;  170.026;-2.99346
 507.23;  176.419;  178.225;  176.401;-1.80605
 507.81;  187.674;  189.522;  188.977;-1.84766
 508.39;  175.801;  177.726;  176.174;-1.92490
 508.97;  184.423;  185.371;  185.047;-0.94875
 509.56;  193.132;  195.905;  194.375;-2.77321
 510.14;  159.045;  163.341;  161.241;-4.29538
 510.72;  177.004;  179.200;  177.478;-2.19668
 511.30;  187.595;  189.355;  186.041;-1.75945
 511.89;  184.814;  187.260;  185.565;-2.44605
 512.47;  180.729;  182.290;  181.031;-1.56166
 513.05;  177.012;  178.056;  177.585;-1.04496
 513.63;  177.821;  179.262;  177.868;-1.44062
 514.22;  189.795;  190.671;  189.266;-0.87636
 514.80;  187.786;  189.987;  188.139;-2.20184
 515.38;  177.873;  180.929;  179.039;-3.05589
 515.96;  200.102;  201.970;  200.259;-1.86807
 516.55;  172.116;  174.993;  172.391;-2.87686
 517.13;  183.872;  185.281;  186.021;-1.40859
 517.71;  166.721;  170.696;  169.247;-3.97543
 518.29;  168.575;  170.994;  170.914;-2.41922
 518.87;  180.373;  182.773;  182.674;-2.39960
 519.46;  173.623;  176.196;  174.753;-2.57255
 520.04;  175.814;  177.299;  177.625;-1.48420
 520.62;  167.936;  168.520;  166.467;-0.58459
 521.20;  163.294;  165.834;  162.686;-2.54025
 521.78;  178.861;  181.708;  180.553;-2.84703
 522.36;  174.923;  177.525;  175.982;-2.60268
 522.95;  175.684;  177.350;  177.197;-1.66598
 523.53;  163.134;  165.613;  164.834;-2.47859
 524.11;  174.556;  176.984;  176.760;-2.42750
 524.69;  169.500;  171.661;  170.408;-2.16080
 525.27;  171.621;  173.930;  173.546;-2.30864
 525.85;  182.408;  184.072;  182.985;-1.66340
 526.44;  182.164;  184.689;  182.487;-2.52505
 527.02;  190.342;  192.458;  192.145;-2.11635
 527.60;  185.265;  186.713;  184.817;-1.44818
 528.18;  166.455;  167.457;  168.352;-1.00250
 528.76;  196.052;  196.792;  197.754;-0.74012
 529.34;  180.228;  183.260;  182.904;-3.03232
 529.92;  197.813;  200.420;  199.070;-2.60675
 530.51;  186.392;  189.152;  189.082;-2.75963
 531.09;  178.730;  180.154;  180.559;-1.42466
 531.67;  173.277;  176.171;  176.286;-2.89493
 532.25;  196.338;  197.521;  198.863;-1.18275
 532.83;  197.170;  197.957;  200.968;-0.78728
 533.41;  171.982;  173.583;  175.342;-1.60146
 533.99;  197.613;  198.349;  200.241;-0.73686
 534.57;  215.488;  217.315;  219.337;-1.82693
 535.15;  178.091;  179.558;  181.714;-1.46743
 535.74;  173.745;  173.355;  177.698; 0.39004
 536.32;  178.103;  180.199;  183.533;-2.09539
 536.90;  171.059;  171.801;  173.158;-0.74176
 537.48;  185.118;  186.379;  186.764;-1.26094
 538.06;  202.555;  204.270;  204.852;-1.71525
 538.64;  187.077;  188.959;  193.302;-1.88223
 539.22;  180.233;  181.431;  184.206;-1.19802
 539.80;  186.348;  187.023;  190.142;-0.67438
 540.38;  202.018;  202.015;  205.750; 0.00334
 540.96;  170.098;  172.174;  176.155;-2.07610
 541.54;  177.833;  177.715;  183.672; 0.11725
 542.12;  222.158;  221.327;  228.946; 0.83048
 542.70;  168.918;  167.198;  178.319; 1.72030
 543.28;  187.758;  185.638;  202.682; 2.11973
 543.86;  183.784;  179.558;  204.103; 4.22657
 544.44;  240.562;  229.764;  278.849;10.79820
 545.02;  254.040;  197.806;  518.343;56.23372
 545.61;  973.737;  187.133; 3429.565;786.60396
 546.19; 1536.118;  191.494; 4874.079;1344.62395
 546.77;  737.265;  184.926; 1764.281;552.33948
 547.35;  273.731;  216.969;  398.729;56.76227
 547.93;  204.451;  192.583;  238.837;11.86845
 548.51;  204.317;  195.648;  217.970; 8.66913
 549.09;  207.442;  204.032;  218.477; 3.40916
 549.67;  204.508;  203.150;  211.654; 1.35793
 550.25;  185.204;  185.505;  191.700;-0.30096
 550.83;  208.313;  208.767;  213.583;-0.45373
 551.41;  195.306;  195.331;  198.861;-0.02473
 551.99;  193.667;  194.669;  196.932;-1.00184
 552.57;  193.671;  194.889;  197.915;-1.21821
 553.15;  212.515;  213.946;  214.893;-1.43130
 553.73;  172.643;  174.061;  174.930;-1.41871
 554.30;  203.944;  205.492;  206.191;-1.54743
 554.88;  189.786;  190.590;  191.836;-0.80452
 555.46;  198.555;  199.623;  201.328;-1.06804
 556.04;  192.232;  193.834;  193.265;-1.60228
 556.62;  213.780;  215.177;  215.762;-1.39689
 557.20;  177.069;  180.119;  178.369;-3.05052
 557.78;  199.514;  201.147;  201.259;-1.63289
 558.36;  213.683;  214.341;  213.174;-0.65769
 558.94;  210.172;  212.844;  212.481;-2.67194
 559.52;  183.777;  186.182;  185.274;-2.40514
 560.10;  199.454;  201.499;  200.758;-2.04503
 560.68;  199.258;  199.206;  200.698; 0.05231
 561.26;  220.099;  221.239;  221.469;-1.13938
 561.84;  178.008;  180.470;  179.169;-2.46220
 562.42;  193.603;  194.239;  194.921;-0.63585
 563.00;  199.388;  201.398;  200.683;-2.01093
 563.58;  194.905;  197.781;  197.730;-2.87616
 564.15;  192.698;  195.206;  196.425;-2.50846
 564.73;  202.146;  202.543;  203.546;-0.39714
 565.31;  212.776;  213.837;  214.694;-1.06128
 565.89;  177.871;  179.559;  180.168;-1.68848
 566.47;  188.245;  189.387;  190.334;-1.14171
 567.05;  208.073;  211.210;  209.801;-3.13784
 567.63;  193.200;  194.227;  193.745;-1.02755
 568.21;  185.672;  186.918;  188.234;-1.24641
 568.79;  209.734;  213.040;  211.859;-3.30584
 569.36;  233.736;  236.037;  236.033;-2.30196
 569.94;  188.648;  189.897;  190.086;-1.24874
 570.52;  207.129;  209.414;  208.876;-2.28423
 571.10;  155.590;  157.228;  157.098;-1.63832
 571.68;  197.576;  199.169;  199.348;-1.59258
 572.26;  205.061;  205.252;  206.805;-0.19144
 572.84;  208.736;  211.646;  213.302;-2.90957
 573.41;  188.511;  188.731;  191.510;-0.22023
 573.99;  230.368;  232.272;  234.484;-1.90360
 574.57;  193.940;  194.210;  198.005;-0.26964
 575.15;  226.077;  226.994;  233.762;-0.91710
 575.73;  214.109;  211.061;  238.659; 3.04858
 576.31;  283.857;  207.503;  581.907;76.35370
 576.88;  383.167;  183.441;  993.686;199.72627
 577.46;  325.349;  191.931;  632.249;133.41741
 578.04;  214.334;  186.325;  314.338;28.00868
 578.62;  332.983;  185.047;  838.586;147.93664
 579.20;  405.730;  190.908; 1006.280;214.82238
 579.78;  276.416;  199.021;  438.584;77.39497
 580.35;  205.195;  198.263;  224.094; 6.93221
 580.93;  187.221;  186.738;  193.932; 0.48332
 581.51;  201.698;  201.746;  203.406;-0.04780
 582.09;  179.034;  180.813;  181.770;-1.77903
 582.67;  180.339;  182.177;  181.880;-1.83843
 583.24;  183.251;  184.733;  185.282;-1.48187
 583.82;  186.946;  189.105;  188.714;-2.15916
 584.40;  185.113;  186.757;  186.158;-1.64378
 584.98;  181.978;  184.186;  183.929;-2.20852
 585.55;  194.843;  195.976;  197.391;-1.13283
 586.13;  169.804;  171.705;  170.347;-1.90058
 586.71;  191.808;  194.074;  193.534;-2.26593
 587.29;  184.555;  188.101;  185.393;-3.54577
 587.86;  187.027;  189.231;  189.128;-2.20357
 588.44;  151.466;  152.704;  151.278;-1.23751
 589.02;  202.276;  204.099;  202.846;-1.82289
 589.60;  181.299;  182.229;  180.686;-0.92996
 590.17;  192.520;  194.163;  192.297;-1.64299
 590.75;  169.587;  171.063;  169.301;-1.47638
 591.33;  168.696;  171.421;  171.119;-2.72457
 591.91;  178.999;  180.727;  180.134;-1.72723
 592.48;  173.919;  176.081;  174.727;-2.16187
 593.06;  190.935;  193.062;  191.277;-2.12717
 593.64;  185.303;  188.266;  186.123;-2.96321
 594.21;  172.324;  173.822;  171.966;-1.49885
 594.79;  183.653;  186.194;  184.253;-2.54092
 595.37;  185.518;  187.110;  186.634;-1.59183
 595.95;  168.678;  171.408;  169.210;-2.72991
 596.52;  174.493;  178.059;  174.385;-3.56553
 597.10;  180.719;  182.221;  181.543;-1.50177
 597.68;  166.414;  168.466;  167.048;-2.05183
 598.25;  189.980;  193.124;  191.102;-3.14355
 598.83;  167.720;  170.075;  168.230;-2.35478
 599.41;  181.499;  183.925;  181.930;-2.42553
 599.98;  207.723;  209.299;  207.470;-1.57634
 600.56;  196.069;  198.222;  196.510;-2.15335
 601.14;  181.005;  183.432;  182.296;-2.42642
 601.71;  184.262;  187.701;  185.581;-3.43939
 602.29;  170.963;  173.090;  171.919;-2.12712
 602.87;  196.090;  198.007;  196.942;-1.91689
 603.44;  188.743;  190.942;  189.970;-2.19905
 604.02;  181.899;  183.873;  183.106;-1.97469
 604.60;  200.898;  205.136;  201.173;-4.23728
 605.17;  207.721;  210.883;  208.291;-3.16249
 605.75;  196.388;  200.919;  198.867;-4.53073
 606.33;  190.272;  192.459;  190.642;-2.18696
 606.90;  210.589;  213.122;  211.394;-2.53256
 607.48;  199.398;  201.531;  199.325;-2.13390
 608.05;  178.879;  180.964;  178.524;-2.08531
 608.63;  185.941;  188.721;  186.371;-2.78013
 609.21;  175.785;  179.004;  176.448;-3.21880
 609.78;  204.190;  206.910;  205.182;-2.72015
 610.36;  193.302;  195.156;  191.741;-1.85462
 610.93;  196.299;  199.919;  196.171;-3.61981
 611.51;  178.325;  181.818;  179.469;-3.49378
 612.09;  207.662;  209.802;  207.395;-2.13939
 612.66;  189.669;  191.850;  190.107;-2.18155
 613.24;  202.662;  206.140;  203.003;-3.47815
 613.81;  207.786;  209.069;  206.200;-1.28347
 614.39;  202.604;  205.430;  203.399;-2.82578
 614.96;  218.242;  221.164;  217.412;-2.92167
 615.54;  202.009;  204.199;  201.843;-2.19040
 616.12;  210.179;  213.779;  209.965;-3.60017
 616.69;  167.962;  170.837;  169.197;-2.87415
 617.27;  196.097;  198.877;  196.719;-2.77933
 617.84;  178.537;  181.457;  178.833;-2.92074
 618.42;  214.098;  216.282;  211.207;-2.18426
 618.99;  196.822;  199.422;  195.870;-2.60055
 619.57;  215.080;  217.872;  214.600;-2.79137
 620.14;  204.563;  206.661;  204.552;-2.09833
 620.72;  183.504;  185.908;  183.325;-2.40415
 621.30;  206.398;  209.281;  206.934;-2.88305
 621.87;  214.820;  218.241;  212.652;-3.42090
 622.45;  204.855;  207.620;  204.167;-2.76467
 623.02;  177.833;  179.695;  178.127;-1.86238
 623.60;  187.853;  191.127;  189.356;-3.27395
 624.17;  195.916;  198.470;  194.886;-2.55388
 624.75;  205.963;  207.818;  205.327;-1.85542
 625.32;  192.676;  195.868;  192.308;-3.19181
 625.90;  198.419;  201.307;  198.133;-2.88781
 626.47;  210.315;  213.203;  210.485;-2.88813
 627.05;  181.037;  184.182;  179.759;-3.14566
 627.62;  198.341;  201.442;  196.459;-3.10131
 628.20;  219.647;  222.275;  218.249;-2.62779
 628.77;  213.222;  214.734;  211.877;-1.51175
 629.34;  231.883;  234.869;  231.819;-2.98645
 629.92;  186.705;  190.410;  187.490;-3.70468
 630.49;  214.031;  215.566;  213.266;-1.53507
 631.07;  189.185;  192.406;  188.294;-3.22083
 631.64;  189.066;  191.284;  187.824;-2.21865
 632.22;  231.268;  234.084;  230.912;-2.81556
 632.79;  205.901;  208.841;  206.039;-2.93993
 633.37;  214.002;  216.164;  212.526;-2.16222
 633.94;  207.867;  210.820;  206.488;-2.95311
 634.52;  202.079;  203.733;  199.758;-1.65397
 635.09;  215.298;  218.961;  215.253;-3.66338
 635.66;  180.668;  184.069;  181.904;-3.40042
 636.24;  195.605;  198.740;  196.282;-3.13589
 636.81;  237.720;  239.193;  236.037;-1.47265
 637.39;  219.609;  222.206;  219.425;-2.59757
 637.96;  215.827;  218.635;  214.710;-2.80808
 638.54;  215.053;  217.872;  214.657;-2.81883
 639.11;  191.180;  193.753;  192.193;-2.57362
 639.68;  218.368;  221.833;  218.132;-3.46497
 640.26;  201.088;  204.087;  200.830;-2.99883
 640.83;  202.898;  206.459;  202.731;-3.56088
 641.41;  196.878;  198.538;  195.288;-1.65993
 641.98;  203.333;  204.173;  202.609;-0.83998
 642.55;  182.084;  184.582;  181.128;-2.49803
 643.13;  198.382;  201.280;  198.066;-2.89809
 643.70;  218.047;  221.121;  217.215;-3.07414
 644.27;  204.675;  206.951;  203.618;-2.27619
 644.85;  194.386;  196.053;  194.159;-1.66724
 645.42;  202.094;  203.918;  199.911;-1.82429
 645.99;  191.272;  193.777;  190.061;-2.50535
 646.57;  196.542;  199.365;  196.463;-2.82340
 647.14;  203.084;  204.351;  201.200;-1.26745
 647.72;  179.920;  182.960;  180.416;-3.03950
 648.29;  192.306;  195.715;  192.608;-3.40855
 648.86;  217.870;  219.854;  216.710;-1.98361
 649.44;  184.362;  187.366;  183.041;-3.00366
 650.01;  194.800;  196.697;  193.457;-1.89671
 650.58;  203.694;  206.635;  202.430;-2.94076
 651.16;  201.045;  203.225;  200.440;-2.17981
 651.73;  189.686;  192.993;  187.736;-3.30687
 652.30;  207.001;  208.247;  207.431;-1.24592
 652.87;  191.689;  194.664;  192.315;-2.97497
 653.45;  213.238;  216.135;  212.966;-2.89702
 654.02;  186.572;  191.063;  187.624;-4.49107
 654.59;  197.641;  200.659;  196.423;-3.01813
 655.17;  202.994;  205.534;  201.261;-2.54018
 655.74;  186.782;  190.469;  184.871;-3.68723
 656.31;  199.226;  201.761;  197.131;-2.53528
 656.89;  200.081;  202.652;  199.572;-2.57133
 657.46;  206.820;  209.284;  205.138;-2.46439
 658.03;  211.703;  215.188;  212.823;-3.48544
 658.60;  195.137;  198.057;  194.048;-2.92049
 659.18;  209.348;  212.581;  210.082;-3.23354
 659.75;  194.104;  197.034;  194.466;-2.93060
 660.32;  213.704;  215.487;  212.587;-1.78365
 660.89;  192.860;  196.388;  193.109;-3.52870
 661.47;  212.328;  215.584;  212.436;-3.25575
 662.04;  213.082;  215.996;  212.492;-2.91380
 662.61;  195.148;  198.714;  195.400;-3.56586
 663.18;  201.532;  205.163;  202.315;-3.63091
 663.76;  182.283;  185.763;  181.848;-3.47996
 664.33;  208.924;  211.416;  208.590;-2.49201
 664.90;  203.619;  205.960;  203.257;-2.34106
 665.47;  198.266;  200.663;  197.715;-2.39712
 666.05;  191.136;  192.534;  190.679;-1.39817
 666.62;  225.315;  227.500;  225.637;-2.18522
 667.19;  191.322;  194.157;  192.394;-2.83527
 667.76;  186.858;  187.471;  189.455;-0.61332
 668.33;  189.216;  191.824;  191.776;-2.60838
 668.91;  181.491;  184.050;  180.984;-2.55943
 669.48;  195.653;  198.330;  195.022;-2.67748
 670.05;  182.942;  185.837;  181.436;-2.89553
 670.62;  202.793;  204.091;  200.111;-1.29858
 671.19;  198.914;  201.615;  199.468;-2.70164
 671.76;  205.526;  209.083;  204.944;-3.55769
 672.34;  188.523;  190.858;  187.849;-2.33574
 672.91;  196.405;  199.040;  196.127;-2.63579
 673.48;  186.606;  189.507;  188.041;-2.90184
 674.05;  211.326;  213.379;  210.493;-2.05390
 674.62;  207.826;  210.870;  207.026;-3.04495
 675.19;  199.816;  202.024;  199.583;-2.20800
 675.77;  203.088;  205.992;  203.236;-2.90405
 676.34;  177.447;  180.600;  176.251;-3.15310
 676.91;  193.725;  196.357;  192.447;-2.63116
 677.48;  196.684;  199.204;  196.000;-2.51921
 678.05;  194.236;  196.463;  194.424;-2.22626
 678.62;  206.347;  209.037;  206.241;-2.68931
 679.19;  198.811;  201.859;  199.488;-3.04736
 679.77;  192.125;  194.613;  191.219;-2.48742
 680.34;  161.307;  162.436;  160.329;-1.12847
 680.91;  190.242;  192.401;  189.018;-2.15852
 681.48;  192.604;  196.198;  192.089;-3.59357
 682.05;  198.638;  200.788;  198.306;-2.14963
 682.62;  168.713;  172.432;  167.647;-3.71868
 683.19;  187.187;  190.794;  187.455;-3.60673
 683.76;  197.586;  199.868;  195.830;-2.28178
 684.33;  199.393;  202.143;  199.173;-2.74983
 684.90;  176.723;  180.460;  176.952;-3.73689
 685.48;  179.712;  183.164;  180.005;-3.45194
 686.05;  176.887;  180.057;  177.615;-3.16999
 686.62;  196.592;  198.586;  197.183;-1.99404
 687.19;  177.470;  179.581;  176.679;-2.11109
 687.76;  187.901;  190.217;  187.707;-2.31615
 688.33;  190.069;  192.783;  190.216;-2.71420
 688.90;  187.672;  191.337;  187.084;-3.66425
 689.47;  149.683;  152.809;  148.484;-3.12530
 690.04;  176.582;  177.694;  177.908;-1.11135
 690.61;  186.091;  185.839;  191.835; 0.25259
 691.18;  169.209;  170.278;  172.036;-1.06846
 691.75;  207.634;  212.459;  209.598;-4.82451
 692.32;  190.380;  194.106;  191.508;-3.72556
 692.89;  209.103;  211.253;  209.013;-2.14961
 693.46;  191.836;  194.866;  194.434;-3.02967
 694.03;  185.288;  188.025;  185.955;-2.73672
 694.60;  195.618;  199.672;  198.362;-4.05377
 695.17;  192.448;  191.577;  198.056; 0.87118
 695.74;  194.596;  180.134;  295.952;14.46213
 696.31;  227.747;  188.224;  526.357;39.52307
 696.88;  228.777;  198.699;  436.680;30.07802
 697.45;  184.033;  181.178;  217.769; 2.85497
 698.02;  164.313;  167.148;  171.529;-2.83508
 698.59;  166.105;  169.870;  171.783;-3.76513
 699.16;  172.098;  174.556;  173.378;-2.45819
 699.73;  184.891;  188.459;  185.243;-3.56824
 700.30;  172.705;  176.728;  173.389;-4.02329
 700.87;  192.946;  195.343;  192.910;-2.39734
 701.44;  190.451;  193.545;  190.847;-3.09439
 702.01;  185.307;  187.919;  185.005;-2.61245
 702.58;  206.760;  209.369;  206.841;-2.60850
 703.15;  172.204;  174.951;  172.191;-2.74655
 703.72;  193.495;  195.526;  192.738;-2.03060
 704.29;  166.487;  169.140;  167.346;-2.65266
 704.86;  197.204;  201.306;  199.260;-4.10171
 705.43;  188.971;  193.210;  191.919;-4.23876
 706.00;  190.963;  188.952;  222.417; 2.01119
 706.57;  190.717;  182.400;  262.230; 8.31714
 707.14;  180.926;  177.202;  221.456; 3.72408
 707.70;  212.675;  214.450;  218.764;-1.77497
 708.27;  179.295;  182.808;  179.997;-3.51302
 708.84;  177.738;  181.019;  178.009;-3.28107
 709.41;  159.810;  162.687;  159.808;-2.87712
 709.98;  204.174;  207.885;  204.521;-3.71118
 710.55;  180.541;  183.079;  181.279;-2.53823
 711.12;  200.097;  202.966;  198.254;-2.86928
 711.69;  195.338;  197.533;  194.719;-2.19533
 712.26;  194.721;  197.826;  194.505;-3.10538
 712.83;  210.301;  212.983;  210.775;-2.68244
 713.39;  196.111;  198.778;  195.453;-2.66749
 713.96;  207.339;  210.219;  212.738;-2.88054
 714.53;  195.577;  196.000;  206.613;-0.42359
 715.10;  194.203;  196.366;  202.143;-2.16364
 715.67;  175.070;  177.510;  175.208;-2.44070
 716.24;  193.613;  197.324;  193.437;-3.71075
 716.81;  212.338;  215.543;  211.046;-3.20480
 717.37;  196.117;  198.613;  195.090;-2.49585
 717.94;  202.707;  204.726;  202.676;-2.01890
 718.51;  202.711;  206.366;  203.290;-3.65496
 719.08;  186.922;  189.358;  185.101;-2.43601
 719.65;  212.972;  215.498;  211.135;-2.52606
 720.22;  206.989;  209.388;  206.097;-2.39911
 720.78;  200.479;  202.904;  198.790;-2.42516
 721.35;  186.711;  189.827;  186.655;-3.11622
 721.92;  214.958;  216.293;  214.834;-1.33527
 722.49;  202.242;  205.337;  202.874;-3.09532
 723.06;  198.772;  201.142;  198.919;-2.37037
 723.63;  170.140;  171.743;  168.342;-1.60342
 724.19;  212.475;  214.440;  210.839;-1.96548
 724.76;  188.001;  191.543;  189.063;-3.54253
 725.33;  198.503;  201.965;  199.054;-3.46258
 725.90;  217.534;  220.459;  219.058;-2.92563
 726.46;  204.057;  202.217;  233.585; 1.83931
 727.03;  229.875;  220.235;  315.146; 9.63926
 727.60;  170.623;  163.342;  231.534; 7.28021
 728.17;  205.500;  205.397;  215.136; 0.10216
 728.74;  208.339;  211.747;  209.799;-3.40889
 729.30;  191.942;  194.958;  191.518;-3.01695
 729.87;  191.606;  193.779;  192.096;-2.17300
 730.44;  215.823;  218.921;  216.598;-3.09805
 731.01;  207.890;  210.214;  208.547;-2.32410
 731.57;  189.303;  192.814;  190.066;-3.51015
 732.14;  186.989;  190.337;  186.899;-3.34721
 732.71;  190.674;  192.707;  189.752;-2.03226
 733.28;  227.269;  229.421;  228.133;-2.15131
 733.84;  187.051;  188.180;  185.858;-1.12836
 734.41;  184.871;  188.004;  184.891;-3.13241
 734.98;  206.203;  209.380;  207.761;-3.17647
 735.54;  223.283;  224.732;  221.853;-1.44852
 736.11;  190.358;  193.223;  191.575;-2.86457
 736.68;  183.141;  185.566;  186.264;-2.42462
 737.25;  196.519;  196.194;  210.177; 0.32533
 737.81;  221.459;  206.607;  317.032;14.85227
 738.38;  220.695;  201.944;  364.691;18.75122
 738.95;  225.712;  218.449;  282.287; 7.26317
 739.51;  210.198;  211.819;  217.624;-1.62088
 740.08;  203.817;  206.974;  207.208;-3.15693
 740.65;  187.909;  190.451;  188.889;-2.54199
 741.21;  203.350;  205.345;  203.778;-1.99504
 741.78;  207.467;  209.359;  208.168;-1.89209
 742.35;  203.840;  205.910;  203.225;-2.07014
 742.91;  218.776;  221.504;  219.878;-2.72819
 743.48;  203.104;  204.741;  203.324;-1.63625
 744.05;  196.650;  199.941;  196.786;-3.29030
 744.61;  203.091;  206.230;  204.593;-3.13835
 745.18;  185.891;  190.159;  187.125;-4.26740
 745.75;  200.232;  203.185;  201.497;-2.95246
 746.31;  228.358;  230.991;  230.891;-2.63251
 746.88;  198.617;  200.707;  200.522;-2.08956
 747.44;  199.342;  201.297;  201.675;-1.95461
 748.01;  228.294;  230.554;  231.329;-2.25966
 748.58;  208.383;  209.499;  213.293;-1.11572
 749.14;  202.052;  199.610;  226.526; 2.44223
 749.71;  235.718;  198.910;  451.231;36.80818
 750.28;  261.153;  205.722;  683.607;55.43113
 750.84;  250.540;  205.812;  549.218;44.72808
 751.41;  216.551;  193.709;  400.206;22.84202
 751.97;  213.083;  204.210;  287.792; 8.87297
 752.54;  197.302;  198.148;  213.887;-0.84608
 753.11;  192.523;  194.676;  198.839;-2.15313
 753.67;  201.450;  205.044;  204.969;-3.59418
 754.24;  194.102;  197.777;  196.031;-3.67524
 754.80;  220.329;  223.433;  221.209;-3.10429
 755.37;  179.284;  181.025;  180.823;-1.74134
 755.93;  214.253;  215.711;  215.748;-1.45839
 756.50;  204.812;  206.490;  204.941;-1.67844
 757.07;  210.215;  211.860;  211.182;-1.64450
 757.63;  182.769;  184.709;  183.805;-1.93955
 758.20;  185.634;  189.259;  187.333;-3.62460
 758.76;  194.019;  197.024;  194.976;-3.00465
 759.33;  164.928;  167.743;  168.252;-2.81470
 759.89;  193.112;  194.521;  196.370;-1.40876
 760.46;  195.934;  198.034;  198.611;-2.09981
 761.02;  208.172;  210.179;  212.126;-2.00686
 761.59;  191.340;  192.068;  198.304;-0.72791
 762.15;  212.804;  208.611;  247.196; 4.19304
 762.72;  265.948;  193.498;  649.960;72.44998
 763.28;  328.468;  183.209; 1239.594;145.25893
 763.85;  293.101;  198.448;  891.355;94.65288
 764.41;  215.930;  202.891;  332.429;13.03883
 764.98;  208.178;  208.257;  229.754;-0.07922
 765.54;  203.996;  205.600;  213.852;-1.60428
 766.11;  199.247;  201.997;  202.867;-2.75033
 766.67;  176.314;  177.836;  178.359;-1.52238
 767.24;  201.540;  204.382;  202.687;-2.84243
 767.80;  189.730;  192.250;  191.715;-2.52049
 768.37;  188.445;  190.143;  189.443;-1.69854
 768.93;  187.353;  188.904;  189.093;-1.55159
 769.50;  197.771;  199.529;  198.465;-1.75864
 770.06;  187.922;  189.196;  190.397;-1.27469
 770.63;  194.262;  196.502;  199.082;-2.23975
 771.19;  195.856;  193.654;  227.151; 2.20220
 771.75;  224.663;  180.382;  467.412;44.28115
 772.32;  245.582;  183.304;  655.670;62.27810
 772.88;  227.561;  199.042;  430.088;28.51905
 773.45;  192.432;  190.442;  224.071; 1.98999
 774.01;  191.200;  194.143;  198.828;-2.94306
 774.58;  188.588;  191.283;  194.013;-2.69511
 775.14;  209.328;  211.771;  209.763;-2.44316
 775.70;  207.970;  211.245;  210.502;-3.27521
 776.27;  201.053;  203.449;  201.405;-2.39627
 776.83;  203.024;  206.935;  204.461;-3.91132
 777.40;  181.734;  185.146;  181.585;-3.41237
 777.96;  184.199;  186.562;  183.867;-2.36342
 778.52;  209.063;  211.924;  207.743;-2.86147
 779.09;  202.202;  205.139;  201.800;-2.93753
 779.65;  204.462;  206.596;  203.406;-2.13458
 780.22;  188.009;  191.477;  187.576;-3.46863
 780.78;  216.841;  219.545;  214.658;-2.70468
 781.34;  215.135;  217.448;  214.646;-2.31373
 781.91;  192.135;  195.823;  191.584;-3.68879
 782.47;  232.959;  236.677;  232.910;-3.71884
 783.03;  212.341;  215.245;  211.398;-2.90489
 783.60;  190.729;  194.822;  191.427;-4.09394
 784.16;  220.591;  222.448;  220.687;-1.85699
 784.72;  192.814;  195.975;  193.537;-3.16105
 785.29;  201.203;  204.757;  201.212;-3.55410
 785.85;  221.148;  224.009;  220.478;-2.86015
 786.41;  205.753;  208.712;  206.244;-2.95820
 786.98;  197.426;  200.760;  197.510;-3.33325
 787.54;  218.683;  222.384;  218.860;-3.70031
 788.10;  196.289;  199.111;  196.332;-2.82136
 788.67;  209.036;  213.399;  210.754;-4.36241
 789.23;  198.583;  202.297;  198.879;-3.71346
 789.79;  212.931;  215.844;  213.134;-2.91252
 790.36;  191.835;  194.272;  191.785;-2.43657
 790.92;  206.724;  209.568;  206.587;-2.84362
 791.48;  191.941;  194.686;  193.516;-2.74467
 792.05;  217.940;  219.769;  218.837;-1.82872
 792.61;  203.639;  204.998;  203.583;-1.35878
 793.17;  211.758;  213.991;  215.509;-2.23283
 793.73;  218.360;  216.065;  244.626; 2.29512
 794.30;  232.167;  211.749;  356.072;20.41807
 794.86;  244.747;  224.545;  393.666;20.20202
 795.42;  209.387;  204.638;  263.159; 4.74896
 795.98;  203.029;  205.454;  211.893;-2.42509
 796.55;  193.331;  194.789;  195.486;-1.45814
 797.11;  211.160;  213.428;  212.302;-2.26819
 797.67;  243.397;  245.488;  245.084;-2.09024
 798.23;  182.725;  185.231;  184.555;-2.50530
 798.80;  217.745;  218.683;  218.281;-0.93735
 799.36;  220.739;  220.889;  232.696;-0.14940
 799.92;  226.958;  214.271;  310.328;12.68755
 800.48;  244.767;  220.741;  413.728;24.02650
 801.05;  242.503;  216.793;  422.721;25.71044
 801.61;  230.521;  214.187;  353.586;16.33439
 802.17;  207.965;  205.839;  244.980; 2.12634
 802.73;  219.348;  220.825;  224.876;-1.47671
 803.29;  186.234;  187.075;  188.525;-0.84076
 803.86;  217.111;  217.860;  216.753;-0.74882
 804.42;  220.258;  221.799;  221.554;-1.54087
 804.98;  235.222;  237.586;  235.995;-2.36392
 805.54;  218.910;  221.901;  220.379;-2.99097
 806.10;  216.799;  219.192;  216.959;-2.39302
 806.66;  248.303;  250.873;  249.895;-2.57008
 807.23;  223.156;  225.518;  223.658;-2.36213
 807.79;  216.456;  218.095;  216.850;-1.63918
 808.35;  225.581;  228.273;  227.824;-2.69223
 808.91;  206.847;  209.176;  212.987;-2.32928
 809.47;  208.874;  198.950;  264.386; 9.92366
 810.03;  235.075;  211.783;  392.351;23.29161
 810.60;  278.523;  239.799;  507.373;38.72356
 811.16;  264.878;  204.523;  629.834;60.35551
 811.72;  286.835;  241.340;  583.026;45.49545
 812.28;  221.728;  211.331;  305.465;10.39740
 812.84;  231.685;  230.825;  245.167; 0.86035
 813.40;  240.347;  242.181;  247.112;-1.83370
 813.96;  229.136;  231.585;  235.064;-2.44875
 814.52;  228.401;  231.331;  230.727;-2.92981
 815.09;  214.780;  217.751;  217.536;-2.97086
 815.65;  230.946;  233.517;  230.944;-2.57091
 816.21;  222.483;  225.300;  222.389;-2.81696
 816.77;  225.897;  229.301;  225.660;-3.40401
 817.33;  222.421;  225.238;  222.182;-2.81707
 817.89;  219.486;  222.458;  219.820;-2.97212
 818.45;  252.310;  255.372;  252.643;-3.06217
 819.01;  230.226;  231.940;  231.281;-1.71422
 819.57;  225.817;  228.306;  224.944;-2.48927
 820.13;  224.808;  226.638;  224.373;-1.83033
 820.69;  241.927;  244.863;  243.814;-2.93638
 821.25;  220.608;  224.011;  220.494;-3.40343
 821.82;  211.897;  214.848;  212.805;-2.95148
 822.38;  230.089;  234.229;  231.349;-4.14053
 822.94;  232.755;  234.120;  232.561;-1.36559
 823.50;  228.305;  231.919;  228.708;-3.61464
 824.06;  228.357;  230.757;  230.499;-2.40069
 824.62;  220.380;  221.177;  223.250;-0.79674
 825.18;  258.760;  256.264;  282.566; 2.49621
 825.74;  244.477;  212.827;  403.395;31.65015
 826.30;  253.467;  213.028;  526.098;40.43910
 826.86;  235.875;  217.866;  384.641;18.00905
 827.42;  237.580;  235.818;  267.421; 1.76200
 827.98;  237.379;  239.046;  242.654;-1.66705
 828.54;  223.147;  225.289;  226.714;-2.14211
 829.10;  214.870;  217.202;  216.639;-2.33216
 829.66;  236.062;  237.921;  237.048;-1.85921
 830.22;  218.676;  222.018;  218.789;-3.34226
 830.78;  205.358;  208.527;  205.779;-3.16931
 831.34;  220.600;  223.362;  221.566;-2.76237
 831.90;  233.118;  236.138;  232.594;-3.02042
 832.46;  221.091;  223.782;  222.131;-2.69147
 833.02;  193.940;  197.083;  193.142;-3.14352
 833.58;  227.506;  230.115;  226.969;-2.60958
 834.14;  218.004;  220.476;  217.512;-2.47263
 834.70;  229.145;  231.332;  228.005;-2.18768
 835.25;  196.324;  199.977;  196.137;-3.65373
 835.81;  206.579;  209.255;  206.325;-2.67678
 836.37;  217.575;  219.946;  216.196;-2.37184
 836.93;  229.246;  231.834;  229.202;-2.58889
 837.49;  226.120;  228.320;  224.375;-2.20094
 838.05;  201.405;  204.064;  201.486;-2.65899
 838.61;  212.346;  215.408;  213.059;-3.06204
 839.17;  208.872;  211.379;  211.516;-2.50710
 839.73;  224.365;  221.396;  251.805; 2.96985
 840.29;  246.694;  228.435;  351.164;18.25980
 840.85;  224.498;  206.682;  347.146;17.81675
 841.41;  231.428;  218.037;  322.252;13.39170
 841.97;  245.107;  218.242;  411.688;26.86564
 842.52;  241.711;  217.246;  414.539;24.46559
 843.08;  209.036;  202.932;  272.665; 6.10454
 843.64;  208.376;  208.146;  219.877; 0.23049
 844.20;  216.792;  218.055;  219.792;-1.26256
 844.76;  226.519;  229.330;  227.489;-2.81062
 845.32;  182.552;  185.444;  182.083;-2.89167
 845.88;  211.868;  214.084;  212.597;-2.21572
 846.44;  221.987;  224.241;  221.439;-2.25377
 846.99;  231.125;  234.728;  234.014;-3.60282
 847.55;  212.122;  213.945;  211.176;-1.82288
 848.11;  182.843;  185.082;  184.253;-2.23893
 848.67;  210.062;  211.981;  209.677;-1.91898
 849.23;  187.202;  190.398;  187.354;-3.19603
 849.79;  208.705;  210.904;  207.754;-2.19908
 850.34;  216.636;  218.550;  217.249;-1.91414
 850.90;  189.004;  190.252;  198.598;-1.24819
 851.46;  234.072;  227.328;  284.448; 6.74476
 852.02;  236.259;  226.958;  310.051; 9.30171
 852.58;  188.453;  185.919;  226.479; 2.53466
 853.13;  204.569;  205.795;  212.880;-1.22540
 853.69;  206.579;  209.143;  207.591;-2.56345
 854.25;  241.557;  244.233;  240.958;-2.67550
 854.81;  201.409;  204.708;  201.292;-3.29855
 855.37;  205.016;  208.307;  203.110;-3.29061
 855.92;  226.525;  229.252;  225.933;-2.72666
 856.48;  205.873;  208.377;  204.808;-2.50371
 857.04;  225.901;  228.688;  224.937;-2.78676
 857.60;  223.092;  226.150;  221.691;-3.05781
 858.16;  219.304;  221.937;  217.639;-2.63287
 858.71;  229.456;  231.243;  227.251;-1.78692
 859.27;  211.015;  214.382;  210.295;-3.36697
 859.83;  211.710;  213.217;  211.887;-1.50702
 860.39;  207.874;  211.025;  207.988;-3.15107
 860.94;  209.657;  211.447;  208.898;-1.79013
 861.50;  202.534;  204.777;  202.645;-2.24318
 862.06;  216.908;  220.290;  216.264;-3.38223
 862.61;  216.198;  219.647;  216.371;-3.44928
 863.17;  187.114;  190.978;  187.515;-3.86433
 863.73;  224.681;  225.883;  223.272;-1.20239
 864.29;  213.167;  215.231;  211.240;-2.06444
 864.84;  220.151;  223.541;  219.672;-3.38949
 865.40;  220.293;  221.994;  219.038;-1.70054
 865.96;  206.084;  207.350;  208.804;-1.26559
 866.51;  212.140;  214.031;  222.897;-1.89065
 867.07;  221.952;  224.850;  228.737;-2.89770
 867.63;  235.547;  238.737;  236.493;-3.18975
 868.18;  229.400;  232.868;  229.520;-3.46780
 868.74;  230.760;  233.738;  230.043;-2.97785
 869.30;  213.357;  217.828;  213.752;-4.47091
 869.86;  202.113;  204.089;  201.508;-1.97596
 870.41;  238.399;  240.623;  237.917;-2.22401
 870.97;  212.173;  213.714;  209.444;-1.54106
 871.52;  213.947;  217.067;  212.542;-3.12011
 872.08;  235.536;  238.127;  235.584;-2.59117
 872.64;  218.832;  221.349;  218.988;-2.51722
 873.19;  196.802;  199.040;  195.874;-2.23827
 873.75;  209.700;  212.121;  209.072;-2.42132
 874.31;  204.050;  207.322;  203.565;-3.27238
 874.86;  225.993;  230.177;  226.270;-4.18437
 875.42;  238.432;  240.846;  237.359;-2.41438
 875.98;  219.081;  222.242;  218.238;-3.16137
 876.53;  219.653;  222.295;  218.441;-2.64237
 877.09;  236.535;  241.741;  237.172;-5.20637
 877.64;  219.800;  222.889;  219.847;-3.08937
 878.20;  218.009;  219.631;  217.135;-1.62237
 878.76;  231.431;  233.231;  230.433;-1.80037
 879.31;  191.435;  194.131;  191.037;-2.69637
 879.87;  224.923;  228.032;  225.200;-3.10938
 880.42;  218.570;  221.918;  218.426;-3.34837
 880.98;  209.174;  210.557;  206.335;-1.38337
 881.54;  241.750;  243.424;  239.657;-1.67437
 882.09;  217.147;  220.116;  217.616;-2.96937
 882.65;  235.027;  237.168;  233.592;-2.14137
 883.20;  228.838;  231.489;  227.445;-2.65137
 883.76;  229.736;  233.743;  229.491;-4.00737
 884.31;  225.177;  226.603;  222.772;-1.42638
 884.87;  254.371;  256.524;  252.670;-2.15338
 885.42;  215.311;  219.318;  214.634;-4.00737
 885.98;  203.252;  206.523;  203.171;-3.27137
 886.53;  222.792;  226.290;  221.606;-3.49837
 887.09;  234.645;  237.940;  233.277;-3.29537
 887.65;  225.912;  229.196;  227.075;-3.28437
 888.20;  220.697;  223.925;  219.081;-3.22837
 888.76;  217.640;  220.715;  216.553;-3.07537
 889.31;  227.639;  230.708;  227.063;-3.06937
 889.87;  228.041;  230.738;  226.933;-2.69737
 890.42;  219.204;  222.643;  219.404;-3.43937
 890.98;  225.630;  229.285;  224.217;-3.65537
 891.53;  199.029;  201.177;  198.956;-2.14837
 892.09;  234.672;  238.930;  233.343;-4.25838
 892.64;  217.745;  220.890;  217.915;-3.14538
 893.19;  222.597;  225.413;  221.488;-2.81637
 893.75;  207.883;  210.257;  206.559;-2.37437
 894.30;  236.767;  240.083;  236.042;-3.31637
 894.86;  206.169;  208.500;  205.145;-2.33137
 895.41;  243.394;  246.450;  242.484;-3.05638
 895.97;  207.241;  210.036;  207.451;-2.79537
 896.52;  244.288;  246.870;  244.098;-2.58238
 897.08;  226.519;  229.928;  227.097;-3.40938
 897.63;  242.193;  246.046;  242.463;-3.85337
 898.19;  223.169;  226.919;  221.941;-3.75037
 898.74;  243.551;  247.075;  241.964;-3.52437
 899.29;  241.014;  245.273;  241.423;-4.25937
 899.85;  218.562;  221.740;  217.840;-3.17838
 900.40;  224.893;  226.652;  224.623;-1.75937
 900.96;  225.911;  228.804;  224.386;-2.89337
 901.51;  222.031;  226.461;  221.344;-4.43037
 902.06;  226.794;  229.154;  225.298;-2.36037
 902.62;  237.444;  240.257;  235.915;-2.81338
 903.17;  232.513;  235.968;  232.176;-3.45537
 903.73;  235.082;  237.288;  235.707;-2.20637
 904.28;  216.916;  221.110;  216.385;-4.19437
 904.83;  250.413;  252.668;  249.126;-2.25538
 905.39;  203.530;  206.849;  202.872;-3.31937
 905.94;  230.537;  232.762;  229.504;-2.22537
 906.50;  239.454;  242.708;  239.323;-3.25437
 907.05;  219.756;  223.208;  219.363;-3.45237
 907.60;  237.615;  240.532;  236.963;-2.91737
 908.16;  227.834;  230.390;  228.085;-2.55638
 908.71;  229.751;  232.919;  229.913;-3.16837
 909.26;  233.635;  236.041;  233.397;-2.40637
 909.82;  225.260;  228.579;  227.376;-3.31937
 910.37;  230.787;  232.106;  235.399;-1.31937
 910.92;  247.360;  242.182;  281.745; 5.17763
 911.48;  279.535;  240.046;  481.890;39.48863
 912.03;  268.401;  213.506;  613.633;54.89463
 912.58;  257.254;  230.910;  476.373;26.34363
 913.14;  240.243;  236.834;  301.799; 3.40863
 913.69;  256.901;  259.090;  269.488;-2.18937
 914.24;  218.169;  219.311;  222.219;-1.14237
 914.79;  216.329;  219.736;  218.365;-3.40738
 915.35;  233.472;  236.230;  234.392;-2.75837
 915.90;  239.570;  242.465;  240.487;-2.89537
 916.45;  218.050;  221.242;  218.208;-3.19237
 917.01;  231.672;  237.045;  232.894;-5.37337
 917.56;  227.226;  230.356;  227.311;-3.13038
 918.11;  226.207;  229.497;  226.003;-3.29037
 918.66;  221.663;  224.129;  220.789;-2.46637
 919.22;  235.442;  240.044;  236.207;-4.60237
 919.77;  220.368;  223.635;  221.133;-3.26737
 920.32;  224.760;  227.047;  224.244;-2.28737
 920.87;  230.263;  232.274;  232.864;-2.01137
 921.43;  227.372;  225.202;  250.486; 2.16962
 921.98;  220.046;  213.204;  276.799; 6.84163
 922.53;  220.862;  217.440;  271.522; 3.42163
 923.08;  227.283;  228.020;  245.586;-0.73737
 923.64;  226.205;  229.200;  232.794;-2.99537
 924.19;  229.958;  233.323;  231.064;-3.36537
 924.74;  209.832;  212.539;  211.372;-2.70737
 925.29;  259.400;  262.397;  260.667;-2.99737
 925.84;  234.122;  237.061;  234.899;-2.93937
 926.40;  212.561;  216.508;  212.506;-3.94737
 926.95;  215.796;  218.243;  214.402;-2.44737
 927.50;  216.447;  219.375;  216.696;-2.92838
 928.05;  226.677;  229.965;  226.066;-3.28837
 928.60;  213.177;  215.523;  210.903;-2.34637
 929.15;  228.750;  230.880;  228.948;-2.13038
 929.71;  239.526;  242.676;  238.862;-3.15037
 930.26;  220.639;  222.682;  220.145;-2.04337
 930.81;  226.685;  229.181;  226.373;-2.49638
 931.36;  236.826;  239.031;  235.832;-2.20538
 931.91;  242.329;  245.393;  241.662;-3.06437
 932.46;  237.891;  241.385;  237.655;-3.49437
 933.02;  225.333;  227.525;  224.869;-2.19237
 933.57;  213.040;  215.460;  211.497;-2.42037
 934.12;  214.394;  215.440;  212.075;-1.04638
 934.67;  229.677;  232.845;  232.336;-3.16837
 935.22;  221.131;  224.509;  225.680;-3.37837
 935.77;  248.177;  250.605;  247.265;-2.42838
 936.32;  234.136;  236.352;  233.242;-2.21637
 936.87;  235.343;  238.464;  234.404;-3.12138
 937.42;  228.611;  233.718;  230.149;-5.10737
 937.98;  210.578;  213.547;  211.733;-2.96937
 938.53;  222.377;  226.826;  221.566;-4.44937
 939.08;  212.744;  216.235;  213.091;-3.49137
 939.63;  235.149;  238.121;  233.627;-2.97237
 940.18;  244.854;  248.052;  245.398;-3.19837
 940.73;  224.879;  226.755;  224.525;-1.87637
 941.28;  210.369;  213.214;  210.218;-2.84537
 941.83;  217.493;  222.208;  218.300;-4.71537
 942.38;  212.852;  216.460;  212.832;-3.60837
 942.93;  228.429;  232.922;  228.633;-4.49337
 943.48;  227.208;  231.096;  227.078;-3.88837
 944.03;  212.894;  214.050;  210.439;-1.15637
 944.58;  216.554;  219.135;  217.194;-2.58137
 945.13;  212.603;  216.153;  212.387;-3.55037
 945.68;  206.055;  208.540;  206.217;-2.48537
 946.23;  215.039;  217.670;  213.880;-2.63137
 946.79;  215.120;  217.395;  214.171;-2.27537
 947.34;  233.421;  237.428;  232.911;-4.00737
 947.89;  239.533;  241.466;  238.836;-1.93338
 948.44;  219.357;  222.454;  219.284;-3.09737
 948.99;  217.828;  220.752;  216.924;-2.92437
 949.54;  232.688;  234.806;  230.186;-2.11837
 950.09;  216.338;  219.000;  216.219;-2.66237
 950.64;  214.644;  217.469;  213.164;-2.82538
 951.19;  196.817;  199.464;  195.816;-2.64738
 951.73;  189.011;  191.189;  187.208;-2.17837
 952.28;  230.741;  233.343;  230.870;-2.60237
 952.83;  224.585;  226.795;  222.726;-2.21037
 953.38;  243.512;  247.102;  243.581;-3.59037
 953.93;  217.637;  220.679;  216.650;-3.04237
 954.48;  218.639;  222.478;  219.371;-3.83938
 955.03;  223.004;  226.571;  222.641;-3.56737
 955.58;  220.837;  224.673;  220.638;-3.83637
 956.13;  192.198;  196.209;  192.119;-4.01137
 956.68;  203.481;  207.758;  204.813;-4.27737
 957.23;  190.877;  195.082;  190.369;-4.20538
 957.78;  203.591;  207.891;  204.342;-4.30037
 958.33;  184.675;  187.886;  184.908;-3.21137
 958.88;  213.637;  216.637;  214.074;-3.00038
 959.43;  220.714;  223.071;  220.660;-2.35737
 959.98;  208.788;  210.963;  207.110;-2.17537
 960.53;  236.945;  241.196;  235.735;-4.25137
 961.07;  206.653;  210.595;  205.337;-3.94237
 961.62;  251.337;  253.181;  250.070;-1.84437
 962.17;  214.167;  217.605;  213.949;-3.43837
 962.72;  217.496;  222.456;  217.978;-4.96037
 963.27;  219.041;  221.585;  218.272;-2.54437
 963.82;  206.281;  209.494;  207.269;-3.21337
 964.37;  230.619;  231.135;  240.124;-0.51637
 964.92;  218.614;  212.368;  264.450; 6.24563
 965.46;  209.147;  201.226;  280.889; 7.92063
 966.01;  216.412;  214.365;  262.804; 2.04663
 966.56;  225.450;  227.062;  237.515;-1.61237
 967.11;  225.598;  228.344;  227.550;-2.74638
 967.66;  213.292;  215.327;  213.586;-2.03537
 968.21;  207.483;  210.560;  208.194;-3.07738
 968.75;  226.147;  229.508;  224.204;-3.36137
 969.30;  218.034;  219.654;  216.833;-1.62037
 969.85;  234.729;  238.621;  233.361;-3.89237
 970.40;  223.104;  226.471;  220.821;-3.36737
 970.95;  227.106;  230.410;  226.071;-3.30437
 971.50;  224.445;  226.693;  223.994;-2.24837
 972.04;  225.285;  228.668;  225.460;-3.38338
 972.59;  234.882;  237.900;  233.089;-3.01837
 973.14;  227.329;  230.143;  226.225;-2.81437
 973.69;  235.927;  239.779;  235.642;-3.85237
 974.24;  221.342;  224.362;  220.206;-3.02037
 974.78;  217.307;  219.900;  215.873;-2.59337
 975.33;  247.194;  249.893;  245.834;-2.69938
 975.88;  230.036;  234.224;  229.422;-4.18838
 976.43;  227.987;  231.270;  227.200;-3.28337
 976.97;  223.423;  225.476;  220.970;-2.05338
 977.52;  211.194;  213.921;  212.176;-2.72737
 978.07;  257.603;  259.339;  261.140;-1.73637
 978.62;  247.744;  250.695;  249.999;-2.95137
 979.16;  244.765;  247.323;  245.899;-2.55837
 979.71;  212.054;  214.525;  211.338;-2.47137
 980.26;  233.095;  236.525;  233.353;-3.43037
 980.81;  232.463;  235.423;  230.718;-2.96037
 981.35;  256.250;  257.470;  254.809;-1.22038
 981.90;  245.384;  247.220;  241.517;-1.83637
 982.45;  240.431;  244.110;  240.405;-3.67937
 982.99;  242.490;  246.699;  242.664;-4.20937
 983.54;  242.066;  244.785;  239.293;-2.71937
 984.09;  232.133;  235.596;  231.355;-3.46337
 984.63;  229.592;  232.859;  228.448;-3.26737
 985.18;  243.266;  245.675;  242.377;-2.40937
 985.73;  237.178;  240.310;  235.860;-3.13237
 986.27;  225.454;  229.021;  224.967;-3.56737
 986.82;  233.062;  236.714;  233.190;-3.65238
 987.37;  249.137;  252.461;  246.808;-3.32438
 987.91;  238.946;  242.035;  236.652;-3.08937
 988.46;  246.354;  250.907;  247.721;-4.55337
 989.01;  240.261;  243.046;  237.572;-2.78537
 989.55;  241.982;  245.620;  241.214;-3.63837
 990.10;  249.510;  252.758;  248.030;-3.24837
 990.65;  264.169;  267.722;  262.831;-3.55338
 991.19;  237.213;  240.603;  236.217;-3.39038
 991.74;  255.777;  258.469;  254.016;-2.69237
 992.29;  244.147;  247.749;  243.190;-3.60237
 992.83;  256.612;  259.957;  254.085;-3.34537
 993.38;  249.684;  253.418;  247.359;-3.73438
 993.92;  229.313;  231.532;  226.472;-2.21937
 994.47;  218.146;  221.206;  216.807;-3.06037
 995.02;  237.520;  240.940;  236.735;-3.42037
 995.56;  256.986;  261.084;  256.692;-4.09837
 996.11;  246.982;  250.205;  246.882;-3.22337
 996.65;  247.682;  251.539;  247.876;-3.85737
 997.20;  242.078;  246.573;  240.294;-4.49537
 997.75;  239.775;  244.305;  239.437;-4.53037
 998.29;  216.530;  220.107;  216.133;-3.57737
 998.84;  246.342;  250.724;  245.329;-4.38237
 999.38;  247.201;  250.042;  244.812;-2.84138
 999.93;  262.976;  267.209;  261.675;-4.23337
1000.47;  261.354;  264.324;  260.831;-2.97037
1001.02;  253.884;  257.092;  253.386;-3.20837
1001.56;  242.216;  244.824;  239.780;-2.60837
1002.11;  231.974;  234.738;  230.445;-2.76437
1002.65;  224.924;  228.565;  223.243;-3.64137
1003.20;  233.519;  237.052;  231.881;-3.53337
1003.75;  266.909;  269.606;  266.036;-2.69738
1004.29;  235.600;  238.538;  233.303;-2.93837
1004.84;  219.913;  223.671;  220.546;-3.75838
1005.38;  223.087;  227.224;  222.859;-4.13737
1005.93;  241.524;  246.906;  241.364;-5.38238
1006.47;  221.548;  224.462;  220.692;-2.91438
1007.02;  228.416;  231.833;  227.662;-3.41737
1007.56;  244.233;  247.433;  242.798;-3.20038
1008.11;  250.604;  252.720;  249.411;-2.11638
1008.65;  208.974;  212.672;  207.079;-3.69837
1009.19;  236.528;  240.140;  236.390;-3.61237
1009.74;  231.921;  236.623;  231.223;-4.70237
1010.28;  234.830;  238.127;  234.215;-3.29737
1010.83;  243.768;  246.572;  242.437;-2.80437
1011.37;  237.454;  240.282;  235.037;-2.82837
1011.92;  234.632;  238.095;  235.208;-3.46337
1012.46;  230.278;  231.437;  230.410;-1.15937
1013.01;  270.147;  267.813;  282.128; 2.33363
1013.55;  243.472;  236.714;  261.377; 6.75763
1014.09;  234.978;  232.679;  247.080; 2.29863
1014.64;  230.690;  232.536;  235.199;-1.84637
1015.18;  226.503;  228.881;  226.875;-2.37837
1015.73;  221.017;  223.733;  221.345;-2.71637
1016.27;  240.758;  244.244;  239.850;-3.48637
1016.82;  233.938;  237.116;  232.899;-3.17837
1017.36;  226.374;  228.573;  224.463;-2.19937
1017.90;  215.518;  219.031;  214.821;-3.51337
1018.45;  210.119;  215.172;  209.010;-5.05337
1018.99;  211.585;  214.070;  213.271;-2.48537
1019.53;  201.243;  203.228;  199.948;-1.98537
1020.08;  228.344;  230.973;  227.485;-2.62937
1020.62;  229.580;  232.690;  229.827;-3.11037
1021.17;  233.931;  236.888;  232.392;-2.95737
1021.71;  233.701;  236.822;  232.866;-3.12138
1022.25;  241.062;  244.782;  239.904;-3.72037
1022.80;  214.772;  218.831;  214.907;-4.05937
1023.34;  213.007;  216.610;  211.512;-3.60337
1023.88;  225.718;  231.207;  224.103;-5.48937
1024.43;  230.452;  232.772;  229.391;-2.32037
1024.97;  233.645;  237.512;  233.233;-3.86737
1025.51;  213.770;  216.658;  213.395;-2.88837
1026.06;  229.724;  232.703;  227.836;-2.97937
1026.60;  234.061;  236.932;  233.723;-2.87137
1027.14;  246.653;  249.520;  244.366;-2.86737
1027.69;  234.175;  237.157;  232.097;-2.98237
1028.23;  229.130;  231.829;  228.253;-2.69937
1028.77;  213.783;  216.286;  212.300;-2.50338
1029.31;  225.177;  228.645;  224.128;-3.46837
1029.86;  218.180;  220.976;  216.083;-2.79638
1030.40;  262.959;  266.957;  262.077;-3.99837
1030.94;  233.675;  235.602;  232.446;-1.92737
1031.48;  242.083;  244.798;  240.883;-2.71537
1032.03;  230.041;  232.974;  227.501;-2.93337
1032.57;  230.983;  233.237;  229.752;-2.25437
1033.11;  226.686;  229.291;  224.720;-2.60537
1033.65;  216.677;  218.770;  213.877;-2.09337
1034.20;  236.302;  239.433;  235.433;-3.13137
1034.74;  233.459;  237.444;  231.019;-3.98537
1035.28;  232.534;  235.133;  231.832;-2.59937
1035.82;  210.182;  212.102;  209.377;-1.92037
1036.37;  222.588;  227.358;  221.872;-4.77038
1036.91;  248.560;  252.225;  248.405;-3.66538
1037.45;  238.948;  242.746;  237.398;-3.79837
1037.99;  229.102;  232.628;  227.965;-3.52637
1038.53;  229.480;  233.175;  229.202;-3.69537
1039.08;  217.363;  221.923;  217.129;-4.56038
1039.62;  218.063;  221.811;  215.711;-3.74837
1040.16;  222.443;  225.614;  220.940;-3.17137
1040.70;  227.994;  231.381;  226.788;-3.38737
1041.24;  244.200;  247.323;  243.321;-3.12337
1041.79;  217.464;  221.850;  217.096;-4.38637
1042.33;  224.964;  228.640;  223.935;-3.67637
1042.87;  218.908;  221.520;  216.620;-2.61237
1043.41;  225.289;  227.631;  221.794;-2.34237
1043.95;  235.792;  238.994;  234.674;-3.20237
1044.49;  203.810;  207.804;  204.268;-3.99437
1045.04;  235.269;  238.040;  234.685;-2.77137
1045.58;  226.910;  230.631;  225.050;-3.72137
1046.12;  256.553;  261.397;  256.429;-4.84437
1046.66;  237.579;  241.752;  239.465;-4.17337
1047.20;  218.417;  222.346;  220.647;-3.92937
1047.74;  252.582;  257.442;  252.264;-4.86038
1048.28;  233.823;  237.555;  234.715;-3.73237
1048.82;  250.480;  254.263;  249.899;-3.78338
1049.36;  253.090;  257.431;  252.537;-4.34137
1049.91;  242.162;  244.699;  240.839;-2.53737
1050.45;  233.924;  237.715;  233.443;-3.79137
1050.99;  254.237;  257.972;  253.565;-3.73537
1051.53;  259.621;  261.630;  258.198;-2.00938
1052.07;  232.003;  235.932;  231.546;-3.92937
1052.61;  233.603;  237.559;  231.951;-3.95637
1053.15;  243.857;  247.051;  242.976;-3.19437
1053.69;  236.377;  239.441;  236.380;-3.06437
1054.23;  241.956;  245.890;  241.171;-3.93437
1054.77;  256.980;  260.772;  255.399;-3.79237
1055.31;  241.285;  244.026;  239.084;-2.74137
1055.85;  231.892;  236.281;  232.209;-4.38937
1056.39;  233.842;  236.749;  231.936;-2.90737
1056.93;  242.138;  245.006;  240.459;-2.86837
1057.47;  252.982;  255.638;  250.912;-2.65638
1058.01;  249.617;  253.134;  248.715;-3.51738
1058.55;  246.410;  250.173;  246.950;-3.76337
1059.09;  247.445;  250.724;  246.105;-3.27937
1059.63;  254.979;  258.518;  252.957;-3.53938
1060.17;  267.082;  271.402;  266.822;-4.32037
1060.71;  233.361;  236.022;  231.876;-2.66137
1061.25;  244.258;  248.550;  243.753;-4.29237
1061.79;  245.553;  249.245;  243.820;-3.69237
1062.33;  238.640;  241.609;  237.818;-2.96937
1062.87;  268.949;  272.206;  267.178;-3.25737
1063.41;  247.723;  250.170;  245.913;-2.44737
1063.95;  254.807;  257.994;  253.445;-3.18738
1064.49;  236.360;  238.396;  236.618;-2.03637
1065.03;  292.700;  296.704;  291.184;-4.00437
1065.57;  266.534;  270.216;  263.442;-3.68238
1066.11;  247.929;  250.404;  245.700;-2.47537
1066.65;  244.449;  247.966;  242.225;-3.51738
1067.19;  260.118;  264.328;  258.730;-4.21037
1067.73;  269.846;  272.864;  267.504;-3.01838
1068.27;  237.982;  242.198;  236.573;-4.21637
1068.81;  243.863;  248.219;  242.997;-4.35638
1069.35;  269.950;  272.494;  267.481;-2.54438
1069.89;  236.215;  239.494;  234.383;-3.27937
1070.43;  260.090;  263.514;  259.943;-3.42437
1070.96;  256.457;  261.175;  254.939;-4.71837
1071.50;  255.956;  259.205;  253.966;-3.24937
1072.04;  250.622;  254.928;  249.432;-4.30638
1072.58;  257.564;  260.967;  255.917;-3.40337
1073.12;  267.613;  270.697;  266.714;-3.08437
1073.66;  239.219;  242.694;  237.410;-3.47537
1074.20;  247.435;  250.650;  248.196;-3.21537
1074.74;  255.697;  258.221;  253.551;-2.52438
1075.27;  242.524;  246.118;  243.897;-3.59438
1075.81;  244.077;  247.862;  243.029;-3.78537
1076.35;  251.205;  254.689;  249.120;-3.48437
1076.89;  253.821;  256.565;  251.325;-2.74437
1077.43;  269.025;  272.947;  267.999;-3.92238
1077.97;  257.873;  260.391;  256.720;-2.51837
1078.50;  254.163;  258.435;  252.985;-4.27237
1079.04;  245.612;  248.393;  242.128;-2.78138
1079.58;  250.683;  254.955;  249.444;-4.27237
1080.12;  245.959;  250.083;  245.012;-4.12437
1080.66;  262.257;  266.546;  260.419;-4.28937
1081.20;  240.250;  244.011;  239.541;-3.76137
1081.73;  236.351;  239.497;  233.654;-3.14637
1082.27;  256.683;  260.170;  252.998;-3.48737
1082.81;  258.497;  262.334;  257.378;-3.83737
1083.35;  250.589;  253.962;  248.599;-3.37337
1083.88;  249.892;  254.193;  248.179;-4.30137
1084.42;  266.513;  268.895;  265.394;-2.38237
1084.96;  243.203;  245.945;  241.314;-2.74237
1085.50;  251.451;  254.803;  249.738;-3.35237
1086.04;  249.565;  250.790;  246.985;-1.22537
1086.57;  273.098;  277.019;  271.691;-3.92137
1087.11;  250.739;  253.851;  249.705;-3.11237
1087.65;  240.810;  245.599;  240.281;-4.78938
1088.19;  266.080;  268.889;  264.683;-2.80937
1088.72;  250.741;  252.668;  249.220;-1.92737
1089.26;  242.812;  246.426;  240.830;-3.61437
1089.80;  236.948;  239.921;  235.334;-2.97337
1090.33;  273.982;  277.901;  273.528;-3.91938
1090.87;  229.765;  233.943;  227.543;-4.17837
1091.41;  234.622;  238.609;  233.488;-3.98737
1091.95;  253.038;  256.121;  250.943;-3.08337
1092.48;  264.755;  268.358;  263.655;-3.60337
1093.02;  236.687;  240.535;  235.415;-3.84837
1093.56;  256.966;  259.101;  254.412;-2.13538
1094.09;  230.506;  234.847;  229.661;-4.34137
1094.63;  231.707;  235.308;  230.537;-3.60137
1095.17;  238.052;  241.362;  236.861;-3.31037
1095.70;  252.647;  255.838;  250.037;-3.19137
1096.24;  239.238;  242.660;  237.502;-3.42237
1096.78;  236.888;  239.928;  234.609;-3.04037
1097.31;  238.867;  242.207;  237.279;-3.34037
1097.85;  245.236;  248.544;  243.933;-3.30837
1098.39;  229.645;  232.669;  227.157;-3.02437
1098.92;  244.382;  246.951;  243.537;-2.56937
1099.46;  250.281;  254.286;  249.128;-4.00537
1099.99;  241.184;  244.255;  239.172;-3.07137
1100.53;  246.172;  249.382;  244.501;-3.21037

