
Integration time [ms]:   0.100
Averaging Nr. [scans]: 1000
Smoothing Nr. [pixels]: 0
Data measured with spectrometer [name]: 7213323SP
Wave   ;Sample   ;Dark     ;Reference;Scope Corrected for Dark
[nm]   ;[counts] ;[counts] ;[counts] ;[counts] 

 175.65;  184.053;  185.783;  180.414;-1.72962
 176.25;  202.212;  205.927;  201.051;-3.71451
 176.85;  199.600;  202.683;  197.041;-3.08383
 177.45;  201.784;  203.508;  199.894;-1.72345
 178.05;  192.215;  193.685;  190.085;-1.46941
 178.65;  190.815;  193.947;  189.195;-3.13215
 179.25;  186.007;  189.491;  186.282;-3.48403
 179.85;  194.205;  197.291;  191.669;-3.08552
 180.45;  185.648;  188.606;  185.031;-2.95827
 181.05;  227.081;  231.340;  226.588;-4.25909
 181.65;  189.107;  192.091;  188.083;-2.98417
 182.25;  208.992;  211.949;  206.883;-2.95692
 182.86;  204.371;  207.996;  202.121;-3.62493
 183.46;  201.958;  206.147;  200.708;-4.18841
 184.06;  187.683;  189.341;  185.033;-1.65879
 184.66;  168.025;  169.990;  164.643;-1.96574
 185.26;  210.087;  213.061;  214.998;-2.97343
 185.86;  191.158;  193.960;  191.880;-2.80278
 186.46;  211.823;  214.994;  211.614;-3.17129
 187.06;  195.039;  196.902;  194.406;-1.86266
 187.66;  217.571;  219.094;  216.525;-1.52245
 188.26;  221.838;  223.645;  220.940;-1.80638
 188.86;  199.807;  202.311;  200.640;-2.50387
 189.46;  197.024;  199.956;  198.052;-2.93222
 190.06;  188.865;  190.583;  188.358;-1.71812
 190.66;  194.612;  196.091;  194.493;-1.47928
 191.26;  213.273;  214.076;  212.779;-0.80314
 191.86;  207.969;  210.199;  207.622;-2.23032
 192.46;  205.939;  209.408;  206.770;-3.46915
 193.06;  208.568;  210.877;  207.841;-2.30969
 193.66;  199.288;  200.410;  199.942;-1.12270
 194.26;  215.304;  217.694;  218.472;-2.38959
 194.86;  182.856;  184.639;  184.097;-1.78317
 195.46;  189.902;  191.975;  189.176;-2.07309
 196.06;  202.577;  205.195;  202.533;-2.61738
 196.66;  181.008;  183.302;  181.286;-2.29357
 197.26;  179.576;  182.502;  180.080;-2.92673
 197.86;  210.203;  212.390;  210.197;-2.18659
 198.46;  178.177;  180.583;  179.072;-2.40545
 199.06;  207.122;  209.579;  206.441;-2.45722
 199.66;  195.175;  197.179;  194.867;-2.00421
 200.26;  184.429;  186.929;  185.670;-2.49987
 200.85;  202.392;  204.678;  202.080;-2.28624
 201.45;  194.676;  196.412;  195.434;-1.73597
 202.05;  195.432;  197.534;  195.645;-2.10218
 202.65;  190.368;  193.343;  189.896;-2.97531
 203.25;  181.106;  182.811;  181.206;-1.70511
 203.85;  195.222;  197.717;  195.949;-2.49448
 204.45;  224.736;  226.232;  226.293;-1.49625
 205.05;  170.608;  172.215;  170.599;-1.60638
 205.65;  177.588;  180.256;  177.581;-2.66736
 206.25;  203.376;  206.201;  205.331;-2.82435
 206.85;  183.775;  186.155;  183.435;-2.37964
 207.45;  190.666;  193.446;  191.637;-2.77963
 208.05;  179.900;  182.052;  180.242;-2.15136
 208.65;  182.272;  183.924;  182.976;-1.65228
 209.25;  174.029;  177.281;  174.426;-3.25224
 209.84;  204.030;  204.778;  203.273;-0.74818
 210.44;  184.681;  185.831;  184.524;-1.14943
 211.04;  218.581;  220.826;  219.523;-2.24458
 211.64;  184.291;  186.519;  184.227;-2.22806
 212.24;  195.947;  197.061;  196.408;-1.11475
 212.84;  191.024;  192.686;  191.061;-1.66210
 213.44;  178.078;  179.742;  179.735;-1.66358
 214.04;  177.251;  179.422;  178.889;-2.17175
 214.64;  195.357;  196.010;  196.183;-0.65258
 215.24;  175.341;  176.617;  175.860;-1.27590
 215.83;  195.448;  197.577;  195.308;-2.12917
 216.43;  163.176;  165.306;  164.475;-2.13071
 217.03;  171.142;  173.213;  173.835;-2.07170
 217.63;  176.247;  178.375;  178.008;-2.12818
 218.23;  185.948;  188.109;  187.688;-2.16092
 218.83;  177.774;  179.774;  179.547;-2.00071
 219.43;  175.660;  176.967;  177.218;-1.30782
 220.03;  166.686;  169.902;  168.913;-3.21592
 220.62;  172.272;  174.413;  174.999;-2.14048
 221.22;  183.374;  184.038;  185.496;-0.66354
 221.82;  187.988;  189.802;  189.660;-1.81408
 222.42;  166.423;  167.270;  168.935;-0.84684
 223.02;  179.147;  181.217;  182.327;-2.07008
 223.62;  172.190;  171.654;  175.421; 0.53597
 224.22;  192.230;  191.896;  195.708; 0.33379
 224.81;  185.062;  185.750;  190.209;-0.68755
 225.41;  184.129;  185.009;  189.807;-0.87944
 226.01;  169.644;  170.181;  175.050;-0.53699
 226.61;  173.140;  172.916;  178.854; 0.22382
 227.21;  173.755;  173.765;  178.313;-0.01033
 227.81;  198.511;  198.744;  205.112;-0.23380
 228.40;  167.016;  166.154;  172.708; 0.86185
 229.00;  174.822;  173.395;  181.048; 1.42764
 229.60;  178.038;  176.512;  183.766; 1.52572
 230.20;  203.456;  201.884;  211.512; 1.57242
 230.80;  164.473;  163.338;  172.378; 1.13486
 231.39;  162.225;  160.293;  169.722; 1.93124
 231.99;  180.546;  178.183;  189.251; 2.36269
 232.59;  207.593;  204.573;  217.599; 3.01982
 233.19;  176.953;  173.410;  188.513; 3.54220
 233.79;  188.897;  186.319;  202.434; 2.57778
 234.38;  175.100;  172.812;  190.099; 2.28720
 234.98;  182.458;  178.647;  196.074; 3.81157
 235.58;  186.546;  181.406;  201.586; 5.13977
 236.18;  198.770;  193.264;  212.456; 5.50600
 236.78;  187.391;  182.090;  202.247; 5.30112
 237.37;  201.010;  191.811;  218.441; 9.19963
 237.97;  203.451;  197.556;  224.600; 5.89482
 238.57;  206.391;  198.851;  226.967; 7.54039
 239.17;  177.906;  168.430;  198.792; 9.47635
 239.76;  197.892;  187.085;  220.862;10.80702
 240.36;  185.793;  176.163;  212.675; 9.62974
 240.96;  215.936;  204.218;  243.349;11.71773
 241.56;  184.343;  173.281;  211.808;11.06245
 242.15;  195.129;  179.736;  223.065;15.39348
 242.75;  214.301;  198.403;  246.418;15.89787
 243.35;  191.126;  177.349;  226.927;13.77670
 243.95;  205.185;  186.928;  243.754;18.25706
 244.54;  218.476;  201.186;  259.178;17.29001
 245.14;  213.906;  194.469;  258.872;19.43737
 245.74;  233.027;  212.340;  280.750;20.68624
 246.34;  206.974;  183.537;  260.989;23.43675
 246.93;  224.572;  197.063;  283.881;27.50956
 247.53;  184.851;  153.235;  263.537;31.61658
 248.13;  236.152;  193.395;  330.762;42.75714
 248.73;  223.821;  181.770;  312.884;42.05145
 249.32;  225.088;  185.280;  307.340;39.80858
 249.92;  217.899;  175.296;  313.021;42.60298
 250.52;  244.833;  191.298;  364.988;53.53477
 251.11;  259.797;  192.564;  413.921;67.23290
 251.71;  307.078;  207.719;  535.383;99.35960
 252.31;  387.045;  163.680; 1116.602;223.36560
 252.91; 3272.771;  187.361;12306.623;3085.40969
 253.50;12674.018;  154.812;38070.578;12519.20526
 254.10;13470.316;  198.001;33115.004;13272.31491
 254.70; 3622.169;  166.640; 7397.543;3455.52957
 255.29;  428.622;  201.462;  779.898;227.15980
 255.89;  283.961;  184.944;  427.893;99.01618
 256.49;  238.808;  168.140;  337.986;70.66835
 257.08;  228.727;  174.424;  312.391;54.30343
 257.68;  231.084;  190.194;  307.577;40.89065
 258.28;  223.491;  187.081;  290.710;36.40992
 258.87;  221.806;  191.826;  281.589;29.98046
 259.47;  204.298;  177.615;  256.904;26.68302
 260.07;  208.788;  184.430;  258.984;24.35774
 260.66;  183.229;  160.137;  230.508;23.09180
 261.26;  231.322;  209.045;  273.389;22.27735
 261.86;  220.532;  200.756;  260.153;19.77528
 262.45;  194.667;  176.279;  231.401;18.38802
 263.05;  194.707;  176.522;  230.199;18.18540
 263.65;  193.498;  178.642;  226.449;14.85520
 264.24;  207.514;  193.555;  241.350;13.95875
 264.84;  227.566;  205.161;  281.498;22.40541
 265.44;  212.741;  182.325;  273.867;30.41611
 266.03;  195.993;  177.647;  231.179;18.34580
 266.63;  177.036;  167.718;  197.785; 9.31853
 267.23;  190.382;  185.031;  211.605; 5.35026
 267.82;  169.886;  164.037;  187.883; 5.84830
 268.42;  178.440;  172.003;  194.649; 6.43702
 269.01;  177.932;  172.399;  194.558; 5.53353
 269.61;  188.964;  181.283;  204.840; 7.68142
 270.21;  190.313;  185.189;  207.045; 5.12385
 270.80;  208.735;  202.637;  224.414; 6.09721
 271.40;  170.424;  165.255;  183.775; 5.16820
 271.99;  204.947;  200.379;  218.373; 4.56730
 272.59;  162.651;  157.284;  177.199; 5.36673
 273.19;  171.862;  168.338;  186.254; 3.52454
 273.78;  161.391;  156.316;  175.177; 5.07467
 274.38;  175.306;  170.500;  193.021; 4.80659
 274.97;  189.582;  180.598;  212.682; 8.98438
 275.57;  190.623;  181.240;  215.124; 9.38284
 276.17;  159.114;  151.526;  175.473; 7.58856
 276.76;  184.888;  179.919;  200.892; 4.96954
 277.36;  181.577;  176.316;  195.657; 5.26111
 277.95;  187.116;  181.802;  202.104; 5.31436
 278.55;  169.544;  165.621;  183.571; 3.92225
 279.14;  187.650;  182.527;  204.050; 5.12346
 279.74;  188.948;  181.713;  211.006; 7.23482
 280.34;  177.858;  166.854;  207.562;11.00439
 280.93;  215.719;  202.511;  243.101;13.20794
 281.53;  170.790;  161.140;  204.471; 9.65001
 282.12;  199.845;  184.315;  242.247;15.53066
 282.72;  194.337;  175.619;  237.668;18.71837
 283.31;  195.530;  183.090;  225.194;12.44015
 283.91;  170.616;  163.396;  189.204; 7.21975
 284.50;  195.570;  190.107;  209.412; 5.46232
 285.10;  205.720;  201.548;  220.160; 4.17241
 285.69;  166.498;  161.840;  181.279; 4.65806
 286.29;  190.866;  186.696;  205.333; 4.17062
 286.89;  179.352;  175.323;  193.509; 4.02958
 287.48;  184.740;  181.152;  198.821; 3.58847
 288.08;  200.735;  195.308;  213.941; 5.42692
 288.67;  185.649;  176.735;  211.533; 8.91322
 289.27;  196.362;  177.393;  238.460;18.96936
 289.86;  193.297;  175.474;  224.048;17.82226
 290.46;  167.675;  160.923;  182.953; 6.75243
 291.05;  178.549;  175.660;  190.854; 2.88888
 291.65;  173.152;  169.699;  186.464; 3.45365
 292.24;  201.259;  195.774;  217.061; 5.48484
 292.84;  184.197;  179.766;  198.640; 4.43067
 293.43;  188.817;  184.841;  201.754; 3.97579
 294.03;  185.761;  182.158;  197.677; 3.60357
 294.62;  193.266;  188.921;  205.562; 4.34477
 295.22;  174.148;  169.760;  187.902; 4.38862
 295.81;  190.865;  183.134;  227.659; 7.73157
 296.41;  297.040;  172.707;  618.639;124.33221
 297.00;  446.860;  187.888;  879.669;258.97187
 297.60;  303.606;  177.385;  448.744;126.22148
 298.19;  201.525;  182.774;  234.456;18.75031
 298.78;  187.502;  178.714;  208.659; 8.78777
 299.38;  170.232;  165.210;  184.146; 5.02122
 299.97;  196.437;  192.233;  207.510; 4.20388
 300.57;  183.720;  179.790;  193.837; 3.92928
 301.16;  141.826;  137.570;  152.734; 4.25663
 301.76;  188.933;  175.571;  237.006;13.36122
 302.35;  222.957;  178.039;  322.268;44.91816
 302.95;  237.014;  195.801;  300.113;41.21315
 303.54;  166.721;  154.947;  188.905;11.77459
 304.14;  165.778;  159.794;  182.352; 5.98398
 304.73;  198.152;  192.017;  213.586; 6.13513
 305.32;  187.134;  182.304;  200.159; 4.83014
 305.92;  166.750;  161.694;  180.386; 5.05567
 306.51;  163.038;  158.503;  174.896; 4.53474
 307.11;  181.453;  177.229;  194.701; 4.22410
 307.70;  162.504;  156.496;  174.665; 6.00732
 308.29;  163.872;  159.940;  177.264; 3.93175
 308.89;  172.571;  167.440;  185.946; 5.13115
 309.48;  133.568;  128.932;  149.281; 4.63531
 310.08;  174.152;  168.493;  192.005; 5.65882
 310.67;  175.593;  168.955;  194.927; 6.63767
 311.27;  167.203;  153.804;  202.344;13.39933
 311.86;  234.246;  160.259;  434.649;73.98736
 312.45;  511.081;  166.112; 1292.883;344.96957
 313.05;  897.235;  176.059; 2220.983;721.17656
 313.64;  862.636;  170.333; 1904.856;692.30296
 314.23;  473.963;  159.036;  905.625;314.92711
 314.83;  279.801;  183.457;  437.262;96.34397
 315.42;  215.653;  153.736;  324.042;61.91684
 316.02;  203.410;  157.548;  288.107;45.86215
 316.61;  190.818;  152.189;  258.543;38.62943
 317.20;  196.621;  165.999;  253.209;30.62197
 317.80;  182.201;  160.221;  232.493;21.97922
 318.39;  187.881;  163.795;  233.203;24.08634
 318.98;  212.421;  193.744;  247.328;18.67668
 319.58;  184.418;  169.828;  216.003;14.58969
 320.17;  184.765;  168.575;  213.990;16.18977
 320.76;  183.014;  168.871;  212.286;14.14286
 321.36;  180.786;  169.357;  202.238;11.42904
 321.95;  174.716;  167.621;  195.718; 7.09501
 322.55;  194.848;  186.082;  213.062; 8.76606
 323.14;  162.401;  152.739;  181.970; 9.66215
 323.73;  164.902;  154.753;  184.904;10.14897
 324.33;  185.275;  176.503;  201.519; 8.77266
 324.92;  176.794;  170.029;  192.560; 6.76480
 325.51;  173.267;  168.343;  187.946; 4.92437
 326.10;  167.032;  162.183;  181.914; 4.84870
 326.70;  178.430;  173.882;  193.516; 4.54726
 327.29;  173.907;  169.970;  187.224; 3.93628
 327.88;  169.956;  165.081;  182.818; 4.87478
 328.48;  181.651;  176.911;  198.026; 4.73993
 329.07;  186.665;  180.658;  199.266; 6.00680
 329.66;  177.763;  170.927;  189.404; 6.83581
 330.26;  180.021;  176.096;  192.723; 3.92559
 330.85;  184.731;  179.929;  195.784; 4.80234
 331.44;  180.092;  175.423;  189.246; 4.66954
 332.04;  180.432;  176.871;  189.683; 3.56103
 332.63;  166.283;  164.646;  174.903; 1.63696
 333.22;  180.335;  176.877;  195.090; 3.45769
 333.81;  196.623;  180.994;  235.574;15.62947
 334.41;  203.673;  180.880;  249.291;22.79228
 335.00;  202.483;  190.775;  222.102;11.70849
 335.59;  178.064;  175.896;  182.714; 2.16726
 336.18;  186.488;  186.918;  190.339;-0.42984
 336.78;  165.586;  165.381;  169.251; 0.20542
 337.37;  170.662;  171.039;  174.332;-0.37636
 337.96;  225.657;  227.172;  229.099;-1.51514
 338.55;  197.170;  198.467;  200.760;-1.29690
 339.15;  184.937;  185.489;  187.809;-0.55230
 339.74;  173.770;  174.451;  176.051;-0.68181
 340.33;  169.954;  171.198;  172.264;-1.24341
 340.92;  182.555;  183.361;  185.726;-0.80538
 341.52;  175.801;  177.029;  179.138;-1.22880
 342.11;  173.442;  174.246;  175.982;-0.80366
 342.70;  159.502;  160.769;  162.731;-1.26634
 343.29;  176.714;  179.040;  180.213;-2.32624
 343.89;  164.535;  164.528;  166.492; 0.00690
 344.48;  178.726;  177.707;  181.187; 1.01890
 345.07;  155.951;  155.616;  158.639; 0.33472
 345.66;  184.104;  184.240;  186.801;-0.13605
 346.25;  168.658;  169.051;  171.893;-0.39291
 346.85;  182.531;  181.558;  184.557; 0.97268
 347.44;  160.678;  160.356;  164.301; 0.32130
 348.03;  168.609;  169.905;  173.428;-1.29626
 348.62;  188.483;  188.520;  191.544;-0.03728
 349.21;  165.204;  165.562;  170.085;-0.35749
 349.81;  177.351;  177.349;  180.710; 0.00124
 350.40;  163.272;  164.108;  168.015;-0.83548
 350.99;  159.875;  159.635;  164.370; 0.24046
 351.58;  170.103;  168.959;  175.213; 1.14395
 352.17;  144.965;  144.645;  150.727; 0.32016
 352.77;  170.475;  167.961;  175.698; 2.51317
 353.36;  177.379;  177.249;  184.777; 0.13061
 353.95;  179.471;  175.374;  183.532; 4.09745
 354.54;  158.093;  156.091;  164.695; 2.00264
 355.13;  176.786;  174.712;  185.178; 2.07403
 355.72;  180.606;  179.625;  189.178; 0.98026
 356.32;  169.834;  168.462;  179.394; 1.37183
 356.91;  190.245;  187.012;  198.581; 3.23232
 357.50;  172.694;  170.027;  181.332; 2.66714
 358.09;  167.793;  164.519;  175.948; 3.27326
 358.68;  173.189;  168.653;  182.453; 4.53532
 359.27;  183.322;  179.216;  193.575; 4.10578
 359.86;  190.127;  185.506;  201.175; 4.62101
 360.46;  162.977;  157.654;  174.085; 5.32218
 361.05;  178.526;  172.518;  190.340; 6.00767
 361.64;  172.978;  167.374;  185.086; 5.60415
 362.23;  178.674;  171.842;  194.651; 6.83201
 362.82;  171.976;  163.839;  192.502; 8.13676
 363.41;  180.778;  168.397;  207.875;12.38099
 364.00;  216.419;  176.951;  353.780;39.46774
 364.59;  558.849;  183.844; 1486.313;375.00556
 365.19; 1026.052;  162.882; 2522.935;863.16987
 365.78;  802.752;  182.214; 1660.725;620.53789
 366.37;  397.735;  167.548;  731.492;230.18629
 366.96;  269.599;  169.481;  397.552;100.11835
 367.55;  207.611;  181.778;  244.913;25.83282
 368.14;  189.784;  178.387;  214.336;11.39742
 368.73;  194.955;  186.299;  218.072; 8.65593
 369.32;  198.703;  188.947;  217.455; 9.75657
 369.91;  190.419;  182.764;  209.941; 7.65534
 370.50;  201.774;  191.469;  219.302;10.30471
 371.09;  183.662;  175.202;  202.742; 8.46014
 371.69;  178.284;  169.328;  198.902; 8.95643
 372.28;  173.646;  165.466;  193.164; 8.17931
 372.87;  208.869;  198.819;  229.204;10.05058
 373.46;  177.933;  166.853;  198.627;11.07989
 374.05;  196.497;  186.768;  218.578; 9.72874
 374.64;  197.356;  185.885;  220.031;11.47164
 375.23;  188.387;  176.637;  210.680;11.74997
 375.82;  206.636;  195.424;  231.757;11.21253
 376.41;  203.758;  191.792;  227.311;11.96658
 377.00;  202.204;  189.710;  229.443;12.49466
 377.59;  194.384;  181.360;  220.777;13.02382
 378.18;  196.248;  181.502;  222.855;14.74525
 378.77;  195.433;  180.446;  221.661;14.98758
 379.36;  185.879;  171.454;  215.856;14.42502
 379.95;  206.357;  190.633;  236.560;15.72445
 380.54;  201.822;  184.731;  233.047;17.09020
 381.13;  215.004;  198.054;  245.947;16.94924
 381.72;  183.381;  165.850;  217.145;17.53148
 382.31;  218.009;  198.959;  250.810;19.05047
 382.90;  199.941;  181.443;  235.621;18.49784
 383.49;  247.387;  227.234;  281.132;20.15284
 384.08;  188.507;  169.673;  226.846;18.83456
 384.67;  214.658;  196.054;  252.682;18.60379
 385.26;  211.050;  189.966;  250.489;21.08378
 385.85;  196.046;  173.409;  233.966;22.63742
 386.44;  210.369;  187.634;  250.247;22.73473
 387.03;  220.088;  197.421;  264.478;22.66708
 387.62;  185.981;  163.338;  228.198;22.64293
 388.21;  219.765;  196.186;  263.020;23.57886
 388.80;  201.994;  178.007;  246.997;23.98671
 389.39;  206.988;  181.558;  253.348;25.42929
 389.98;  206.836;  181.266;  255.753;25.57000
 390.57;  206.432;  179.164;  255.437;27.26838
 391.16;  213.986;  186.709;  261.714;27.27736
 391.75;  221.582;  196.106;  269.716;25.47615
 392.34;  223.377;  196.263;  270.151;27.11439
 392.93;  218.440;  191.339;  268.909;27.10110
 393.52;  195.804;  166.840;  245.097;28.96321
 394.11;  199.044;  171.515;  250.044;27.52901
 394.70;  238.713;  210.391;  289.266;28.32183
 395.29;  218.993;  191.029;  271.052;27.96450
 395.88;  207.424;  178.836;  257.652;28.58774
 396.47;  224.511;  194.161;  273.788;30.34976
 397.05;  207.791;  178.850;  258.016;28.94079
 397.64;  221.283;  191.695;  272.155;29.58805
 398.23;  211.825;  183.469;  265.215;28.35522
 398.82;  212.908;  185.793;  265.767;27.11422
 399.41;  204.040;  175.624;  255.098;28.41567
 400.00;  200.574;  172.349;  252.393;28.22508
 400.59;  221.376;  193.132;  273.690;28.24408
 401.18;  215.699;  186.235;  269.091;29.46440
 401.77;  209.721;  180.529;  262.585;29.19261
 402.36;  223.560;  194.073;  281.319;29.48672
 402.95;  208.955;  176.865;  273.673;32.09056
 403.53;  247.556;  193.473;  388.007;54.08227
 404.12;  562.566;  179.919; 1465.115;382.64711
 404.71; 1097.076;  177.698; 2583.144;919.37806
 405.30;  764.010;  158.448; 1466.161;605.56237
 405.89;  283.781;  172.611;  421.434;111.16984
 406.48;  231.571;  194.565;  292.922;37.00601
 407.07;  206.431;  166.267;  287.548;40.16367
 407.66;  261.305;  189.535;  386.657;71.77037
 408.24;  257.036;  190.223;  354.475;66.81272
 408.83;  226.682;  192.720;  276.672;33.96253
 409.42;  191.026;  167.033;  233.595;23.99230
 410.01;  206.669;  182.853;  246.646;23.81666
 410.60;  215.046;  193.582;  254.574;21.46466
 411.19;  184.319;  162.868;  222.268;21.45144
 411.78;  184.982;  164.580;  221.798;20.40181
 412.36;  189.265;  169.760;  225.619;19.50552
 412.95;  196.553;  177.768;  232.970;18.78562
 413.54;  219.598;  200.262;  253.428;19.33589
 414.13;  212.106;  190.969;  245.348;21.13621
 414.72;  192.809;  174.563;  226.540;18.24607
 415.31;  194.988;  175.308;  228.778;19.68062
 415.89;  175.418;  156.787;  208.684;18.63027
 416.48;  193.460;  176.500;  225.226;16.95993
 417.07;  183.248;  167.929;  214.352;15.31965
 417.66;  213.231;  197.499;  243.116;15.73252
 418.25;  198.668;  182.567;  226.683;16.10089
 418.83;  194.123;  178.673;  222.017;15.44918
 419.42;  198.075;  182.859;  226.599;15.21595
 420.01;  200.170;  185.601;  228.959;14.56943
 420.60;  198.362;  183.877;  225.851;14.48488
 421.19;  220.621;  207.381;  246.419;13.24046
 421.77;  175.094;  163.362;  202.087;11.73180
 422.36;  204.947;  192.702;  230.957;12.24515
 422.95;  192.944;  181.905;  218.066;11.03912
 423.54;  211.260;  199.674;  236.024;11.58578
 424.12;  202.623;  191.729;  225.095;10.89411
 424.71;  201.867;  191.024;  224.132;10.84308
 425.30;  207.229;  195.949;  231.290;11.28047
 425.89;  205.832;  194.640;  228.544;11.19170
 426.48;  197.516;  187.742;  220.262; 9.77373
 427.06;  190.576;  180.325;  212.383;10.25091
 427.65;  204.395;  194.373;  225.779;10.02127
 428.24;  183.059;  173.882;  202.939; 9.17754
 428.83;  192.838;  182.524;  213.653;10.31410
 429.41;  205.255;  195.650;  224.759; 9.60535
 430.00;  191.944;  182.279;  211.652; 9.66480
 430.59;  225.756;  215.774;  246.183; 9.98212
 431.17;  208.782;  197.939;  229.574;10.84270
 431.76;  208.315;  198.877;  230.916; 9.43835
 432.35;  219.113;  207.590;  241.614;11.52334
 432.94;  216.044;  203.248;  244.729;12.79642
 433.52;  219.489;  200.767;  258.083;18.72179
 434.11;  236.630;  207.894;  298.172;28.73532
 434.70;  270.418;  198.296;  485.671;72.12168
 435.29;  960.964;  212.896; 2805.055;748.06848
 435.87; 2055.460;  206.719; 5150.592;1848.74082
 436.46; 1363.579;  210.740; 2722.762;1152.83906
 437.05;  342.833;  183.603;  540.545;159.23007
 437.63;  227.539;  201.332;  274.666;26.20748
 438.22;  220.452;  203.832;  248.964;16.62008
 438.81;  228.730;  216.074;  253.576;12.65664
 439.39;  199.125;  190.341;  219.764; 8.78451
 439.98;  214.442;  206.514;  232.521; 7.92847
 440.57;  208.602;  201.749;  225.617; 6.85337
 441.15;  203.722;  197.083;  219.055; 6.63871
 441.74;  209.317;  203.234;  220.966; 6.08358
 442.33;  213.926;  210.182;  227.628; 3.74464
 442.91;  209.364;  204.665;  222.203; 4.69959
 443.50;  200.102;  195.081;  212.909; 5.02158
 444.09;  190.464;  187.318;  202.260; 3.14592
 444.67;  225.056;  220.137;  236.318; 4.91897
 445.26;  203.813;  200.047;  213.821; 3.76613
 445.85;  218.407;  213.759;  229.093; 4.64858
 446.43;  202.474;  197.378;  213.253; 5.09634
 447.02;  202.247;  199.195;  213.971; 3.05255
 447.61;  184.607;  180.285;  193.601; 4.32170
 448.19;  208.763;  205.617;  218.236; 3.14521
 448.78;  201.643;  196.885;  208.027; 4.75731
 449.36;  202.769;  200.522;  212.489; 2.24671
 449.95;  195.423;  194.136;  205.296; 1.28714
 450.54;  193.253;  190.992;  202.068; 2.26091
 451.12;  216.075;  213.227;  224.440; 2.84859
 451.71;  181.583;  178.246;  190.035; 3.33678
 452.30;  207.342;  203.933;  214.755; 3.40873
 452.88;  195.835;  193.927;  204.263; 1.90803
 453.47;  180.482;  178.301;  188.234; 2.18097
 454.05;  189.728;  187.381;  198.324; 2.34683
 454.64;  201.283;  198.638;  209.186; 2.64483
 455.22;  215.042;  213.190;  222.695; 1.85128
 455.81;  178.497;  177.234;  186.806; 1.26339
 456.40;  214.899;  213.844;  221.415; 1.05541
 456.98;  188.833;  187.286;  196.557; 1.54617
 457.57;  207.592;  205.449;  214.096; 2.14280
 458.15;  213.356;  212.635;  220.194; 0.72106
 458.74;  200.428;  197.409;  205.667; 3.01958
 459.33;  204.371;  203.185;  211.567; 1.18656
 459.91;  204.455;  204.309;  209.606; 0.14599
 460.50;  203.799;  201.867;  210.124; 1.93204
 461.08;  195.177;  194.525;  201.549; 0.65173
 461.67;  198.088;  197.717;  203.915; 0.37022
 462.25;  203.806;  202.160;  208.184; 1.64657
 462.84;  171.678;  171.143;  177.443; 0.53550
 463.42;  191.081;  190.005;  197.335; 1.07639
 464.01;  192.907;  192.089;  200.154; 0.81852
 464.59;  203.513;  204.720;  209.773;-1.20713
 465.18;  192.188;  190.661;  196.631; 1.52699
 465.76;  197.113;  195.978;  202.098; 1.13555
 466.35;  196.825;  195.076;  202.134; 1.74829
 466.94;  207.198;  205.588;  211.128; 1.60983
 467.52;  215.744;  215.546;  220.402; 0.19719
 468.11;  180.383;  181.263;  185.451;-0.87935
 468.69;  175.444;  175.283;  178.777; 0.16026
 469.28;  165.043;  165.781;  169.570;-0.73790
 469.86;  200.869;  201.956;  204.795;-1.08721
 470.45;  195.528;  195.976;  198.769;-0.44815
 471.03;  175.350;  176.987;  179.928;-1.63772
 471.62;  188.117;  187.494;  189.847; 0.62340
 472.20;  189.998;  191.403;  194.726;-1.40490
 472.79;  225.408;  226.987;  228.835;-1.57981
 473.37;  188.914;  189.814;  192.908;-0.89944
 473.95;  188.910;  189.323;  192.703;-0.41300
 474.54;  148.498;  149.139;  152.162;-0.64086
 475.12;  215.787;  215.707;  218.210; 0.07922
 475.71;  196.044;  196.860;  199.441;-0.81566
 476.29;  201.284;  200.246;  203.200; 1.03812
 476.88;  176.341;  176.462;  178.540;-0.12183
 477.46;  177.586;  177.365;  179.356; 0.22024
 478.05;  183.728;  185.347;  186.478;-1.61916
 478.63;  187.637;  186.990;  191.034; 0.64757
 479.22;  168.955;  169.617;  170.278;-0.66216
 479.80;  193.082;  193.848;  195.363;-0.76548
 480.38;  188.357;  188.725;  191.085;-0.36870
 480.97;  172.975;  173.631;  174.897;-0.65587
 481.55;  183.428;  184.528;  186.205;-1.10013
 482.14;  205.542;  206.846;  207.401;-1.30402
 482.72;  179.138;  180.594;  182.124;-1.45590
 483.31;  175.901;  178.196;  177.897;-2.29492
 483.89;  180.437;  182.203;  182.403;-1.76627
 484.47;  181.316;  181.411;  182.354;-0.09491
 485.06;  170.802;  171.398;  172.672;-0.59553
 485.64;  194.234;  195.727;  195.664;-1.49378
 486.23;  198.802;  200.730;  200.398;-1.92800
 486.81;  192.229;  193.913;  194.241;-1.68353
 487.39;  161.699;  162.998;  164.354;-1.29856
 487.98;  174.356;  176.232;  176.507;-1.87537
 488.56;  203.498;  205.172;  205.349;-1.67403
 489.15;  173.640;  175.879;  176.203;-2.23925
 489.73;  177.112;  179.611;  179.606;-2.49923
 490.31;  176.257;  177.484;  179.772;-1.22644
 490.90;  178.315;  178.035;  182.159; 0.27996
 491.48;  184.478;  183.404;  192.437; 1.07379
 492.06;  197.762;  196.254;  201.679; 1.50841
 492.65;  165.943;  167.123;  168.469;-1.17959
 493.23;  154.126;  155.512;  155.351;-1.38668
 493.82;  187.823;  190.279;  188.929;-2.45668
 494.40;  153.376;  156.063;  154.592;-2.68730
 494.98;  172.148;  173.980;  173.304;-1.83193
 495.57;  152.926;  155.023;  154.804;-2.09689
 496.15;  151.431;  153.475;  152.224;-2.04471
 496.73;  165.420;  166.732;  165.567;-1.31138
 497.32;  186.109;  188.806;  185.987;-2.69661
 497.90;  183.575;  185.243;  184.261;-1.66827
 498.48;  161.314;  163.264;  161.229;-1.94957
 499.07;  166.598;  168.933;  167.574;-2.33497
 499.65;  184.412;  187.241;  185.883;-2.82926
 500.23;  151.049;  152.838;  150.126;-1.78970
 500.82;  161.638;  164.071;  163.825;-2.43313
 501.40;  165.657;  168.176;  166.053;-2.51889
 501.98;  178.216;  180.379;  178.435;-2.16236
 502.56;  190.928;  193.014;  192.690;-2.08621
 503.15;  191.147;  193.763;  191.639;-2.61624
 503.73;  175.695;  176.916;  175.410;-1.22092
 504.31;  177.884;  179.871;  178.659;-1.98734
 504.90;  185.255;  187.818;  186.738;-2.56324
 505.48;  199.153;  201.702;  199.199;-2.54847
 506.06;  184.598;  186.348;  184.710;-1.74957
 506.64;  170.872;  172.437;  170.026;-1.56533
 507.23;  175.594;  178.225;  176.401;-2.63097
 507.81;  186.580;  189.522;  188.977;-2.94141
 508.39;  175.433;  177.726;  176.174;-2.29371
 508.97;  184.438;  185.371;  185.047;-0.93325
 509.56;  194.599;  195.905;  194.375;-1.30623
 510.14;  159.347;  163.341;  161.241;-3.99350
 510.72;  177.323;  179.200;  177.478;-1.87782
 511.30;  187.088;  189.355;  186.041;-2.26653
 511.89;  184.355;  187.260;  185.565;-2.90497
 512.47;  180.788;  182.290;  181.031;-1.50221
 513.05;  176.418;  178.056;  177.585;-1.63834
 513.63;  176.749;  179.262;  177.868;-2.51300
 514.22;  188.426;  190.671;  189.266;-2.24529
 514.80;  187.380;  189.987;  188.139;-2.60729
 515.38;  177.582;  180.929;  179.039;-3.34691
 515.96;  199.815;  201.970;  200.259;-2.15578
 516.55;  172.667;  174.993;  172.391;-2.32669
 517.13;  184.123;  185.281;  186.021;-1.15799
 517.71;  168.166;  170.696;  169.247;-2.53072
 518.29;  169.867;  170.994;  170.914;-1.12784
 518.87;  181.136;  182.773;  182.674;-1.63639
 519.46;  173.454;  176.196;  174.753;-2.74157
 520.04;  176.623;  177.299;  177.625;-0.67543
 520.62;  167.204;  168.520;  166.467;-1.31619
 521.20;  163.589;  165.834;  162.686;-2.24505
 521.78;  179.668;  181.708;  180.553;-2.03996
 522.36;  175.483;  177.525;  175.982;-2.04282
 522.95;  175.304;  177.350;  177.197;-2.04554
 523.53;  163.472;  165.613;  164.834;-2.14038
 524.11;  175.596;  176.984;  176.760;-1.38755
 524.69;  169.932;  171.661;  170.408;-1.72867
 525.27;  172.107;  173.930;  173.546;-1.82261
 525.85;  182.805;  184.072;  182.985;-1.26691
 526.44;  182.782;  184.689;  182.487;-1.90657
 527.02;  189.913;  192.458;  192.145;-2.54569
 527.60;  184.716;  186.713;  184.817;-1.99702
 528.18;  166.736;  167.457;  168.352;-0.72115
 528.76;  196.495;  196.792;  197.754;-0.29700
 529.34;  182.354;  183.260;  182.904;-0.90668
 529.92;  198.284;  200.420;  199.070;-2.13585
 530.51;  187.701;  189.152;  189.082;-1.45100
 531.09;  179.956;  180.154;  180.559;-0.19881
 531.67;  174.019;  176.171;  176.286;-2.15232
 532.25;  195.949;  197.521;  198.863;-1.57145
 532.83;  196.637;  197.957;  200.968;-1.32006
 533.41;  172.025;  173.583;  175.342;-1.55873
 533.99;  197.293;  198.349;  200.241;-1.05629
 534.57;  216.264;  217.315;  219.337;-1.05172
 535.15;  178.706;  179.558;  181.714;-0.85232
 535.74;  173.540;  173.355;  177.698; 0.18506
 536.32;  178.905;  180.199;  183.533;-1.29351
 536.90;  170.732;  171.801;  173.158;-1.06906
 537.48;  184.723;  186.379;  186.764;-1.65593
 538.06;  203.125;  204.270;  204.852;-1.14465
 538.64;  188.876;  188.959;  193.302;-0.08304
 539.22;  180.694;  181.431;  184.206;-0.73776
 539.80;  186.964;  187.023;  190.142;-0.05850
 540.38;  202.659;  202.015;  205.750; 0.64398
 540.96;  172.210;  172.174;  176.155; 0.03641
 541.54;  178.398;  177.715;  183.672; 0.68275
 542.12;  222.852;  221.327;  228.946; 1.52424
 542.70;  169.620;  167.198;  178.319; 2.42237
 543.28;  190.045;  185.638;  202.682; 4.40694
 543.86;  186.385;  179.558;  204.103; 6.82708
 544.44;  243.791;  229.764;  278.849;14.02733
 545.02;  271.797;  197.806;  518.343;73.99074
 545.61; 1273.329;  187.133; 3429.565;1086.19664
 546.19; 2083.018;  191.494; 4874.079;1891.52463
 546.77;  930.679;  184.926; 1764.281;745.75344
 547.35;  288.869;  216.969;  398.729;71.89996
 547.93;  211.553;  192.583;  238.837;18.97063
 548.51;  204.829;  195.648;  217.970; 9.18110
 549.09;  207.430;  204.032;  218.477; 3.39771
 549.67;  203.776;  203.150;  211.654; 0.62662
 550.25;  185.816;  185.505;  191.700; 0.31147
 550.83;  208.978;  208.767;  213.583; 0.21096
 551.41;  196.067;  195.331;  198.861; 0.73636
 551.99;  193.912;  194.669;  196.932;-0.75689
 552.57;  195.448;  194.889;  197.915; 0.55896
 553.15;  212.345;  213.946;  214.893;-1.60127
 553.73;  173.504;  174.061;  174.930;-0.55724
 554.30;  204.364;  205.492;  206.191;-1.12752
 554.88;  189.174;  190.590;  191.836;-1.41676
 555.46;  199.290;  199.623;  201.328;-0.33376
 556.04;  191.384;  193.834;  193.265;-2.44966
 556.62;  213.653;  215.177;  215.762;-1.52351
 557.20;  176.835;  180.119;  178.369;-3.28476
 557.78;  199.696;  201.147;  201.259;-1.45171
 558.36;  213.504;  214.341;  213.174;-0.83643
 558.94;  211.355;  212.844;  212.481;-1.48893
 559.52;  184.054;  186.182;  185.274;-2.12761
 560.10;  199.887;  201.499;  200.758;-1.61196
 560.68;  199.659;  199.206;  200.698; 0.45357
 561.26;  218.823;  221.239;  221.469;-2.41590
 561.84;  177.809;  180.470;  179.169;-2.66183
 562.42;  193.134;  194.239;  194.921;-1.10489
 563.00;  199.808;  201.398;  200.683;-1.59032
 563.58;  195.831;  197.781;  197.730;-1.95001
 564.15;  193.621;  195.206;  196.425;-1.58573
 564.73;  202.543;  202.543;  203.546;-0.00001
 565.31;  213.230;  213.837;  214.694;-0.60666
 565.89;  178.705;  179.559;  180.168;-0.85474
 566.47;  188.722;  189.387;  190.334;-0.66463
 567.05;  209.454;  211.210;  209.801;-1.75629
 567.63;  193.276;  194.227;  193.745;-0.95117
 568.21;  185.231;  186.918;  188.234;-1.68771
 568.79;  209.707;  213.040;  211.859;-3.33289
 569.36;  234.470;  236.037;  236.033;-1.56733
 569.94;  188.420;  189.897;  190.086;-1.47665
 570.52;  206.874;  209.414;  208.876;-2.53944
 571.10;  155.455;  157.228;  157.098;-1.77308
 571.68;  198.144;  199.169;  199.348;-1.02458
 572.26;  204.628;  205.252;  206.805;-0.62473
 572.84;  209.747;  211.646;  213.302;-1.89838
 573.41;  188.814;  188.731;  191.510; 0.08276
 573.99;  232.030;  232.272;  234.484;-0.24199
 574.57;  194.896;  194.210;  198.005; 0.68599
 575.15;  227.571;  226.994;  233.762; 0.57681
 575.73;  217.617;  211.061;  238.659; 6.55608
 576.31;  319.456;  207.503;  581.907;111.95333
 576.88;  498.746;  183.441;  993.686;315.30556
 577.46;  389.391;  191.931;  632.249;197.45981
 578.04;  223.829;  186.325;  314.338;37.50372
 578.62;  410.311;  185.047;  838.586;225.26411
 579.20;  524.230;  190.908; 1006.280;333.32260
 579.78;  308.550;  199.021;  438.584;109.52944
 580.35;  208.739;  198.263;  224.094;10.47613
 580.93;  188.151;  186.738;  193.932; 1.41338
 581.51;  202.982;  201.746;  203.406; 1.23593
 582.09;  178.983;  180.813;  181.770;-1.82956
 582.67;  180.157;  182.177;  181.880;-2.02012
 583.24;  184.031;  184.733;  185.282;-0.70190
 583.82;  186.258;  189.105;  188.714;-2.84721
 584.40;  184.556;  186.757;  186.158;-2.20066
 584.98;  182.032;  184.186;  183.929;-2.15416
 585.55;  194.770;  195.976;  197.391;-1.20668
 586.13;  169.722;  171.705;  170.347;-1.98298
 586.71;  191.794;  194.074;  193.534;-2.27952
 587.29;  185.675;  188.101;  185.393;-2.42586
 587.86;  187.898;  189.231;  189.128;-1.33298
 588.44;  150.005;  152.704;  151.278;-2.69855
 589.02;  201.927;  204.099;  202.846;-2.17270
 589.60;  180.334;  182.229;  180.686;-1.89453
 590.17;  192.115;  194.163;  192.297;-2.04735
 590.75;  169.247;  171.063;  169.301;-1.81610
 591.33;  169.796;  171.421;  171.119;-1.62498
 591.91;  179.456;  180.727;  180.134;-1.27044
 592.48;  173.115;  176.081;  174.727;-2.96590
 593.06;  191.200;  193.062;  191.277;-1.86222
 593.64;  187.029;  188.266;  186.123;-1.23723
 594.21;  172.888;  173.822;  171.966;-0.93429
 594.79;  183.650;  186.194;  184.253;-2.54472
 595.37;  186.591;  187.110;  186.634;-0.51908
 595.95;  168.993;  171.408;  169.210;-2.41451
 596.52;  174.894;  178.059;  174.385;-3.16496
 597.10;  180.993;  182.221;  181.543;-1.22786
 597.68;  166.604;  168.466;  167.048;-1.86268
 598.25;  190.585;  193.124;  191.102;-2.53897
 598.83;  167.806;  170.075;  168.230;-2.26906
 599.41;  181.930;  183.925;  181.930;-1.99496
 599.98;  208.398;  209.299;  207.470;-0.90168
 600.56;  195.588;  198.222;  196.510;-2.63409
 601.14;  180.839;  183.432;  182.296;-2.59292
 601.71;  185.034;  187.701;  185.581;-2.66731
 602.29;  172.089;  173.090;  171.919;-1.00180
 602.87;  195.901;  198.007;  196.942;-2.10611
 603.44;  189.276;  190.942;  189.970;-1.66677
 604.02;  182.332;  183.873;  183.106;-1.54123
 604.60;  201.528;  205.136;  201.173;-3.60786
 605.17;  208.732;  210.883;  208.291;-2.15175
 605.75;  197.916;  200.919;  198.867;-3.00284
 606.33;  190.169;  192.459;  190.642;-2.29073
 606.90;  210.751;  213.122;  211.394;-2.37058
 607.48;  198.370;  201.531;  199.325;-3.16131
 608.05;  177.926;  180.964;  178.524;-3.03808
 608.63;  184.852;  188.721;  186.371;-3.86900
 609.21;  176.717;  179.004;  176.448;-2.28707
 609.78;  205.192;  206.910;  205.182;-1.71881
 610.36;  192.117;  195.156;  191.741;-3.03920
 610.93;  196.208;  199.919;  196.171;-3.71107
 611.51;  180.414;  181.818;  179.469;-1.40426
 612.09;  208.279;  209.802;  207.395;-1.52290
 612.66;  190.174;  191.850;  190.107;-1.67617
 613.24;  202.314;  206.140;  203.003;-3.82681
 613.81;  206.705;  209.069;  206.200;-2.36414
 614.39;  202.093;  205.430;  203.399;-3.33666
 614.96;  218.858;  221.164;  217.412;-2.30562
 615.54;  202.301;  204.199;  201.843;-1.89831
 616.12;  210.839;  213.779;  209.965;-2.93962
 616.69;  168.918;  170.837;  169.197;-1.91841
 617.27;  196.422;  198.877;  196.719;-2.45488
 617.84;  177.423;  181.457;  178.833;-4.03425
 618.42;  212.300;  216.282;  211.207;-3.98205
 618.99;  196.525;  199.422;  195.870;-2.89717
 619.57;  215.965;  217.872;  214.600;-1.90650
 620.14;  204.876;  206.661;  204.552;-1.78568
 620.72;  183.634;  185.908;  183.325;-2.27401
 621.30;  206.416;  209.281;  206.934;-2.86457
 621.87;  214.451;  218.241;  212.652;-3.79011
 622.45;  205.627;  207.620;  204.167;-1.99262
 623.02;  178.389;  179.695;  178.127;-1.30610
 623.60;  188.992;  191.127;  189.356;-2.13513
 624.17;  197.060;  198.470;  194.886;-1.40950
 624.75;  204.920;  207.818;  205.327;-2.89832
 625.32;  192.122;  195.868;  192.308;-3.74547
 625.90;  199.062;  201.307;  198.133;-2.24507
 626.47;  210.502;  213.203;  210.485;-2.70120
 627.05;  181.113;  184.182;  179.759;-3.06981
 627.62;  198.412;  201.442;  196.459;-3.03027
 628.20;  219.460;  222.275;  218.249;-2.81447
 628.77;  211.987;  214.734;  211.877;-2.74665
 629.34;  232.304;  234.869;  231.819;-2.56513
 629.92;  187.296;  190.410;  187.490;-3.11402
 630.49;  214.771;  215.566;  213.266;-0.79438
 631.07;  188.326;  192.406;  188.294;-4.07988
 631.64;  188.112;  191.284;  187.824;-3.17281
 632.22;  231.247;  234.084;  230.912;-2.83697
 632.79;  206.329;  208.841;  206.039;-2.51272
 633.37;  213.680;  216.164;  212.526;-2.48424
 633.94;  207.314;  210.820;  206.488;-3.50539
 634.52;  202.008;  203.733;  199.758;-1.72494
 635.09;  215.628;  218.961;  215.253;-3.33330
 635.66;  181.251;  184.069;  181.904;-2.81792
 636.24;  195.971;  198.740;  196.282;-2.76930
 636.81;  236.820;  239.193;  236.037;-2.37261
 637.39;  219.374;  222.206;  219.425;-2.83278
 637.96;  216.871;  218.635;  214.710;-1.76478
 638.54;  216.335;  217.872;  214.657;-1.53708
 639.11;  191.726;  193.753;  192.193;-2.02720
 639.68;  219.051;  221.833;  218.132;-2.78154
 640.26;  201.367;  204.087;  200.830;-2.72008
 640.83;  202.499;  206.459;  202.731;-3.96010
 641.41;  196.813;  198.538;  195.288;-1.72512
 641.98;  202.184;  204.173;  202.609;-1.98914
 642.55;  182.553;  184.582;  181.128;-2.02916
 643.13;  198.031;  201.280;  198.066;-3.24918
 643.70;  217.371;  221.121;  217.215;-3.75021
 644.27;  203.518;  206.951;  203.618;-3.43323
 644.85;  194.938;  196.053;  194.159;-1.11525
 645.42;  202.073;  203.918;  199.911;-1.84527
 645.99;  190.446;  193.777;  190.061;-3.33129
 646.57;  196.917;  199.365;  196.463;-2.44831
 647.14;  201.791;  204.351;  201.200;-2.56033
 647.72;  179.977;  182.960;  180.416;-2.98235
 648.29;  193.297;  195.715;  192.608;-2.41737
 648.86;  217.706;  219.854;  216.710;-2.14739
 649.44;  184.326;  187.366;  183.041;-3.03941
 650.01;  194.375;  196.697;  193.457;-2.32143
 650.58;  203.348;  206.635;  202.430;-3.28645
 651.16;  201.181;  203.225;  200.440;-2.04348
 651.73;  189.669;  192.993;  187.736;-3.32350
 652.30;  205.903;  208.247;  207.431;-2.34352
 652.87;  192.279;  194.664;  192.315;-2.38454
 653.45;  213.951;  216.135;  212.966;-2.18356
 654.02;  187.685;  191.063;  187.624;-3.37758
 654.59;  198.052;  200.659;  196.423;-2.60660
 655.17;  202.667;  205.534;  201.261;-2.86662
 655.74;  186.807;  190.469;  184.871;-3.66164
 656.31;  198.168;  201.761;  197.131;-3.59266
 656.89;  200.507;  202.652;  199.572;-2.14568
 657.46;  205.279;  209.284;  205.138;-4.00570
 658.03;  212.600;  215.188;  212.823;-2.58873
 658.60;  195.776;  198.057;  194.048;-2.28175
 659.18;  210.559;  212.581;  210.082;-2.02277
 659.75;  194.010;  197.034;  194.466;-3.02479
 660.32;  212.023;  215.487;  212.587;-3.46481
 660.89;  193.772;  196.388;  193.109;-2.61683
 661.47;  213.371;  215.584;  212.436;-2.21285
 662.04;  214.015;  215.996;  212.492;-1.98087
 662.61;  195.872;  198.714;  195.400;-2.84189
 663.18;  202.022;  205.163;  202.315;-3.14091
 663.76;  182.785;  185.763;  181.848;-2.97793
 664.33;  208.538;  211.416;  208.590;-2.87795
 664.90;  203.547;  205.960;  203.257;-2.41298
 665.47;  198.700;  200.663;  197.715;-1.96300
 666.05;  191.258;  192.534;  190.679;-1.27602
 666.62;  224.858;  227.500;  225.637;-2.64204
 667.19;  191.477;  194.157;  192.394;-2.68006
 667.76;  186.956;  187.471;  189.455;-0.51508
 668.33;  190.316;  191.824;  191.776;-1.50810
 668.91;  181.768;  184.050;  180.984;-2.28212
 669.48;  195.965;  198.330;  195.022;-2.36514
 670.05;  183.231;  185.837;  181.436;-2.60616
 670.62;  204.021;  204.091;  200.111;-0.07018
 671.19;  198.109;  201.615;  199.468;-3.50620
 671.76;  206.274;  209.083;  204.944;-2.80923
 672.34;  188.014;  190.858;  187.849;-2.84425
 672.91;  196.715;  199.040;  196.127;-2.32527
 673.48;  187.687;  189.507;  188.041;-1.82029
 674.05;  210.735;  213.379;  210.493;-2.64431
 674.62;  208.022;  210.870;  207.026;-2.84833
 675.19;  200.664;  202.024;  199.583;-1.35935
 675.77;  203.071;  205.992;  203.236;-2.92037
 676.34;  177.360;  180.600;  176.251;-3.23939
 676.91;  193.920;  196.357;  192.447;-2.43641
 677.48;  195.615;  199.204;  196.000;-3.58843
 678.05;  194.541;  196.463;  194.424;-1.92145
 678.62;  205.686;  209.037;  206.241;-3.35048
 679.19;  198.489;  201.859;  199.488;-3.36950
 679.77;  192.505;  194.613;  191.219;-2.10752
 680.34;  160.450;  162.436;  160.329;-1.98554
 680.91;  189.998;  192.401;  189.018;-2.40256
 681.48;  192.861;  196.198;  192.089;-3.33658
 682.05;  198.647;  200.788;  198.306;-2.14060
 682.62;  169.399;  172.432;  167.647;-3.03262
 683.19;  188.111;  190.794;  187.455;-2.68264
 683.76;  196.424;  199.868;  195.830;-3.44366
 684.33;  198.904;  202.143;  199.173;-3.23968
 684.90;  177.818;  180.460;  176.952;-2.64270
 685.48;  179.325;  183.164;  180.005;-3.83972
 686.05;  177.304;  180.057;  177.615;-2.75375
 686.62;  196.686;  198.586;  197.183;-1.90077
 687.19;  177.230;  179.581;  176.679;-2.35179
 687.76;  187.708;  190.217;  187.707;-2.50981
 688.33;  190.299;  192.783;  190.216;-2.48483
 688.90;  187.559;  191.337;  187.084;-3.77785
 689.47;  150.375;  152.809;  148.484;-2.43387
 690.04;  176.509;  177.694;  177.908;-1.18489
 690.61;  187.516;  185.839;  191.835; 1.67709
 691.18;  169.719;  170.278;  172.036;-0.55893
 691.75;  209.303;  212.459;  209.598;-3.15595
 692.32;  192.115;  194.106;  191.508;-1.99097
 692.89;  209.481;  211.253;  209.013;-1.77200
 693.46;  192.668;  194.866;  194.434;-2.19802
 694.03;  185.489;  188.025;  185.955;-2.53604
 694.60;  196.328;  199.672;  198.362;-3.34406
 695.17;  194.308;  191.577;  198.056; 2.73092
 695.74;  201.401;  180.134;  295.952;21.26690
 696.31;  277.486;  188.224;  526.357;89.26188
 696.88;  264.367;  198.699;  436.680;65.66786
 697.45;  188.025;  181.178;  217.769; 6.84684
 698.02;  165.451;  167.148;  171.529;-1.69718
 698.59;  167.535;  169.870;  171.783;-2.33520
 699.16;  173.349;  174.556;  173.378;-1.20722
 699.73;  185.990;  188.459;  185.243;-2.46925
 700.30;  174.113;  176.728;  173.389;-2.61527
 700.87;  191.934;  195.343;  192.910;-3.40929
 701.44;  191.326;  193.545;  190.847;-2.21931
 702.01;  186.000;  187.919;  185.005;-1.91933
 702.58;  206.643;  209.369;  206.841;-2.72535
 703.15;  172.968;  174.951;  172.191;-1.98237
 703.72;  193.041;  195.526;  192.738;-2.48439
 704.29;  167.013;  169.140;  167.346;-2.12641
 704.86;  198.250;  201.306;  199.260;-3.05543
 705.43;  190.211;  193.210;  191.919;-2.99845
 706.00;  194.136;  188.952;  222.417; 5.18453
 706.57;  203.499;  182.400;  262.230;21.09950
 707.14;  187.054;  177.202;  221.456; 9.85248
 707.70;  213.079;  214.450;  218.764;-1.37054
 708.27;  179.119;  182.808;  179.997;-3.68856
 708.84;  177.935;  181.019;  178.009;-3.08358
 709.41;  159.974;  162.687;  159.808;-2.71260
 709.98;  204.601;  207.885;  204.521;-3.28362
 710.55;  180.900;  183.079;  181.279;-2.17864
 711.12;  199.545;  202.966;  198.254;-3.42066
 711.69;  195.304;  197.533;  194.719;-2.22968
 712.26;  195.091;  197.826;  194.505;-2.73570
 712.83;  210.998;  212.983;  210.775;-1.98572
 713.39;  196.383;  198.778;  195.453;-2.39575
 713.96;  207.728;  210.219;  212.738;-2.49177
 714.53;  197.023;  196.000;  206.613; 1.02221
 715.10;  195.681;  196.366;  202.143;-0.68581
 715.67;  174.308;  177.510;  175.208;-3.20283
 716.24;  194.105;  197.324;  193.437;-3.21885
 716.81;  211.920;  215.543;  211.046;-3.62287
 717.37;  196.072;  198.613;  195.090;-2.54089
 717.94;  202.554;  204.726;  202.676;-2.17191
 718.51;  203.575;  206.366;  203.290;-2.79093
 719.08;  186.891;  189.358;  185.101;-2.46695
 719.65;  211.603;  215.498;  211.135;-3.89497
 720.22;  206.455;  209.388;  206.097;-2.93300
 720.78;  200.924;  202.904;  198.790;-1.98002
 721.35;  186.709;  189.827;  186.655;-3.11804
 721.92;  214.101;  216.293;  214.834;-2.19206
 722.49;  202.224;  205.337;  202.874;-3.11308
 723.06;  198.901;  201.142;  198.919;-2.24110
 723.63;  170.093;  171.743;  168.342;-1.65012
 724.19;  211.476;  214.440;  210.839;-2.96414
 724.76;  188.876;  191.543;  189.063;-2.66716
 725.33;  198.954;  201.965;  199.054;-3.01118
 725.90;  217.693;  220.459;  219.058;-2.76620
 726.46;  206.337;  202.217;  233.585; 4.11978
 727.03;  243.525;  220.235;  315.146;23.28976
 727.60;  180.612;  163.342;  231.534;17.26973
 728.17;  205.192;  205.397;  215.136;-0.20529
 728.74;  209.040;  211.747;  209.799;-2.70731
 729.30;  192.485;  194.958;  191.518;-2.47333
 729.87;  191.684;  193.779;  192.096;-2.09435
 730.44;  216.337;  218.921;  216.598;-2.58337
 731.01;  208.103;  210.214;  208.547;-2.11039
 731.57;  189.937;  192.814;  190.066;-2.87641
 732.14;  186.421;  190.337;  186.899;-3.91543
 732.71;  191.032;  192.707;  189.752;-1.67445
 733.28;  226.845;  229.421;  228.133;-2.57547
 733.84;  186.164;  188.180;  185.858;-2.01549
 734.41;  184.750;  188.004;  184.891;-3.25352
 734.98;  208.062;  209.380;  207.761;-1.31754
 735.54;  223.068;  224.732;  221.853;-1.66356
 736.11;  189.750;  193.223;  191.575;-3.47258
 736.68;  184.828;  185.566;  186.264;-0.73760
 737.25;  197.213;  196.194;  210.177; 1.01938
 737.81;  234.233;  206.607;  317.032;27.62636
 738.38;  245.387;  201.944;  364.691;43.44334
 738.95;  233.416;  218.449;  282.287;14.96632
 739.51;  210.880;  211.819;  217.624;-0.93970
 740.08;  205.540;  206.974;  207.208;-1.43472
 740.65;  188.524;  190.451;  188.889;-1.92774
 741.21;  203.528;  205.345;  203.778;-1.81777
 741.78;  207.700;  209.359;  208.168;-1.65979
 742.35;  203.513;  205.910;  203.225;-2.39781
 742.91;  218.572;  221.504;  219.878;-2.93283
 743.48;  202.885;  204.741;  203.324;-1.85585
 744.05;  197.532;  199.941;  196.786;-2.40887
 744.61;  204.327;  206.230;  204.593;-1.90289
 745.18;  186.664;  190.159;  187.125;-3.49491
 745.75;  198.675;  203.185;  201.497;-4.50993
 746.31;  230.006;  230.991;  230.891;-0.98495
 746.88;  198.485;  200.707;  200.522;-2.22197
 747.44;  199.832;  201.297;  201.675;-1.46499
 748.01;  227.677;  230.554;  231.329;-2.87702
 748.58;  208.117;  209.499;  213.293;-1.38204
 749.14;  202.365;  199.610;  226.526; 2.75494
 749.71;  271.100;  198.910;  451.231;72.18992
 750.28;  355.742;  205.722;  683.607;150.01990
 750.84;  307.312;  205.812;  549.218;101.49988
 751.41;  249.105;  193.709;  400.206;55.39586
 751.97;  226.489;  204.210;  287.792;22.27884
 752.54;  198.241;  198.148;  213.887; 0.09282
 753.11;  193.415;  194.676;  198.839;-1.26120
 753.67;  203.257;  205.044;  204.969;-1.78722
 754.24;  193.833;  197.777;  196.031;-3.94424
 754.80;  220.284;  223.433;  221.209;-3.14927
 755.37;  179.387;  181.025;  180.823;-1.63829
 755.93;  214.170;  215.711;  215.748;-1.54131
 756.50;  203.630;  206.490;  204.941;-2.86033
 757.07;  209.196;  211.860;  211.182;-2.66335
 757.63;  182.596;  184.709;  183.805;-2.11237
 758.20;  185.568;  189.259;  187.333;-3.69039
 758.76;  194.032;  197.024;  194.976;-2.99141
 759.33;  165.126;  167.743;  168.252;-2.61643
 759.89;  193.908;  194.521;  196.370;-0.61245
 760.46;  196.032;  198.034;  198.611;-2.00147
 761.02;  209.099;  210.179;  212.126;-1.07949
 761.59;  191.246;  192.068;  198.304;-0.82151
 762.15;  213.654;  208.611;  247.196; 5.04346
 762.72;  294.260;  193.498;  649.960;100.76244
 763.28;  453.928;  183.209; 1239.594;270.71942
 763.85;  377.190;  198.448;  891.355;178.74240
 764.41;  226.806;  202.891;  332.429;23.91538
 764.98;  209.902;  208.257;  229.754; 1.64536
 765.54;  205.001;  205.600;  213.852;-0.59866
 766.11;  200.192;  201.997;  202.867;-1.80568
 766.67;  176.622;  177.836;  178.359;-1.21470
 767.24;  202.235;  204.382;  202.687;-2.14772
 767.80;  190.736;  192.250;  191.715;-1.51474
 768.37;  188.421;  190.143;  189.443;-1.72276
 768.93;  186.946;  188.904;  189.093;-1.95879
 769.50;  197.571;  199.529;  198.465;-1.95881
 770.06;  188.644;  189.196;  190.397;-0.55283
 770.63;  194.410;  196.502;  199.082;-2.09185
 771.19;  197.372;  193.654;  227.151; 3.71813
 771.75;  250.350;  180.382;  467.412;69.96811
 772.32;  310.630;  183.304;  655.670;127.32609
 772.88;  257.656;  199.042;  430.088;58.61407
 773.45;  195.039;  190.442;  224.071; 4.59705
 774.01;  192.206;  194.143;  198.828;-1.93697
 774.58;  188.268;  191.283;  194.013;-3.01499
 775.14;  209.119;  211.771;  209.763;-2.65201
 775.70;  207.962;  211.245;  210.502;-3.28304
 776.27;  200.430;  203.449;  201.405;-3.01906
 776.83;  204.224;  206.935;  204.461;-2.71108
 777.40;  182.070;  185.146;  181.585;-3.07610
 777.96;  183.839;  186.562;  183.867;-2.72312
 778.52;  209.487;  211.924;  207.743;-2.43714
 779.09;  203.183;  205.139;  201.800;-1.95616
 779.65;  204.325;  206.596;  203.406;-2.27118
 780.22;  187.726;  191.477;  187.576;-3.75120
 780.78;  217.205;  219.545;  214.658;-2.34022
 781.34;  215.737;  217.448;  214.646;-1.71124
 781.91;  193.065;  195.823;  191.584;-2.75826
 782.47;  233.075;  236.677;  232.910;-3.60229
 783.03;  212.026;  215.245;  211.398;-3.21931
 783.60;  190.841;  194.822;  191.427;-3.98133
 784.16;  220.574;  222.448;  220.687;-1.87335
 784.72;  192.706;  195.975;  193.537;-3.26837
 785.29;  201.398;  204.757;  201.212;-3.35839
 785.85;  220.521;  224.009;  220.478;-3.48741
 786.41;  205.176;  208.712;  206.244;-3.53543
 786.98;  198.124;  200.760;  197.510;-2.63545
 787.54;  219.478;  222.384;  218.860;-2.90547
 788.10;  195.914;  199.111;  196.332;-3.19649
 788.67;  209.628;  213.399;  210.754;-3.77051
 789.23;  199.119;  202.297;  198.879;-3.17754
 789.79;  212.924;  215.844;  213.134;-2.91956
 790.36;  191.689;  194.272;  191.785;-2.58258
 790.92;  206.903;  209.568;  206.587;-2.66460
 791.48;  191.001;  194.686;  193.516;-3.68462
 792.05;  217.398;  219.769;  218.837;-2.37064
 792.61;  202.479;  204.998;  203.583;-2.51866
 793.17;  211.313;  213.991;  215.509;-2.67868
 793.73;  219.383;  216.065;  244.626; 3.31730
 794.30;  248.724;  211.749;  356.072;36.97428
 794.86;  268.953;  224.545;  393.666;44.40726
 795.42;  216.636;  204.638;  263.159;11.99724
 795.98;  203.311;  205.454;  211.893;-2.14379
 796.55;  192.930;  194.789;  195.486;-1.85981
 797.11;  211.445;  213.428;  212.302;-1.98383
 797.67;  243.088;  245.488;  245.084;-2.39985
 798.23;  183.008;  185.231;  184.555;-2.22287
 798.80;  217.741;  218.683;  218.281;-0.94189
 799.36;  221.291;  220.889;  232.696; 0.40209
 799.92;  236.012;  214.271;  310.328;21.74107
 800.48;  268.583;  220.741;  413.728;47.84205
 801.05;  268.017;  216.793;  422.721;51.22403
 801.61;  247.856;  214.187;  353.586;33.66901
 802.17;  212.809;  205.839;  244.980; 6.96999
 802.73;  220.834;  220.825;  224.876; 0.00897
 803.29;  185.693;  187.075;  188.525;-1.38206
 803.86;  217.090;  217.860;  216.753;-0.77008
 804.42;  218.824;  221.799;  221.554;-2.97510
 804.98;  236.097;  237.586;  235.995;-1.48912
 805.54;  218.904;  221.901;  220.379;-2.99714
 806.10;  216.683;  219.192;  216.959;-2.50916
 806.66;  249.335;  250.873;  249.895;-1.53818
 807.23;  222.595;  225.518;  223.658;-2.92320
 807.79;  216.332;  218.095;  216.850;-1.76322
 808.35;  225.948;  228.273;  227.824;-2.32524
 808.91;  206.746;  209.176;  212.987;-2.43026
 809.47;  211.922;  198.950;  264.386;12.97172
 810.03;  257.892;  211.783;  392.351;46.10869
 810.60;  302.269;  239.799;  507.373;62.46967
 811.16;  310.083;  204.523;  629.834;105.56065
 811.72;  325.692;  241.340;  583.026;84.35263
 812.28;  228.947;  211.331;  305.465;17.61661
 812.84;  232.141;  230.825;  245.167; 1.31659
 813.40;  241.649;  242.181;  247.112;-0.53143
 813.96;  229.555;  231.585;  235.064;-2.02945
 814.52;  229.461;  231.331;  230.727;-1.86947
 815.09;  215.952;  217.751;  217.536;-1.79849
 815.65;  230.954;  233.517;  230.944;-2.56251
 816.21;  222.532;  225.300;  222.389;-2.76753
 816.77;  226.645;  229.301;  225.660;-2.65556
 817.33;  223.259;  225.238;  222.182;-1.97858
 817.89;  220.209;  222.458;  219.820;-2.24860
 818.45;  252.216;  255.372;  252.643;-3.15562
 819.01;  229.223;  231.940;  231.281;-2.71664
 819.57;  225.892;  228.306;  224.944;-2.41366
 820.13;  224.509;  226.638;  224.373;-2.12968
 820.69;  243.703;  244.863;  243.814;-1.16070
 821.25;  220.603;  224.011;  220.494;-3.40872
 821.82;  212.164;  214.848;  212.805;-2.68474
 822.38;  230.976;  234.229;  231.349;-3.25376
 822.94;  233.513;  234.120;  232.561;-0.60778
 823.50;  228.817;  231.919;  228.708;-3.10281
 824.06;  229.472;  230.757;  230.499;-1.28583
 824.62;  220.274;  221.177;  223.250;-0.90285
 825.18;  259.742;  256.264;  282.566; 3.47813
 825.74;  263.157;  212.827;  403.395;50.33011
 826.30;  300.656;  213.028;  526.098;87.62809
 826.86;  259.106;  217.866;  384.641;41.24007
 827.42;  239.953;  235.818;  267.421; 4.13505
 827.98;  238.235;  239.046;  242.654;-0.81097
 828.54;  222.739;  225.289;  226.714;-2.54999
 829.10;  215.775;  217.202;  216.639;-1.42701
 829.66;  236.599;  237.921;  237.048;-1.32203
 830.22;  219.897;  222.018;  218.789;-2.12106
 830.78;  205.225;  208.527;  205.779;-3.30208
 831.34;  220.032;  223.362;  221.566;-3.33010
 831.90;  233.071;  236.138;  232.594;-3.06712
 832.46;  221.806;  223.782;  222.131;-1.97614
 833.02;  195.079;  197.083;  193.142;-2.00416
 833.58;  228.914;  230.115;  226.969;-1.20118
 834.14;  218.405;  220.476;  217.512;-2.07120
 834.70;  229.769;  231.332;  228.005;-1.56322
 835.25;  196.338;  199.977;  196.137;-3.63924
 835.81;  206.855;  209.255;  206.325;-2.40026
 836.37;  216.648;  219.946;  216.196;-3.29828
 836.93;  230.029;  231.834;  229.202;-1.80530
 837.49;  226.119;  228.320;  224.375;-2.20133
 838.05;  200.755;  204.064;  201.486;-3.30835
 838.61;  212.588;  215.408;  213.059;-2.81937
 839.17;  209.974;  211.379;  211.516;-1.40439
 839.73;  228.126;  221.396;  251.805; 6.73059
 840.29;  263.363;  228.435;  351.164;34.92857
 840.85;  245.653;  206.682;  347.146;38.97155
 841.41;  240.148;  218.037;  322.252;22.11153
 841.97;  268.310;  218.242;  411.688;50.06851
 842.52;  268.078;  217.246;  414.539;50.83249
 843.08;  217.012;  202.932;  272.665;14.08047
 843.64;  207.547;  208.146;  219.877;-0.59855
 844.20;  217.516;  218.055;  219.792;-0.53858
 844.76;  227.035;  229.330;  227.489;-2.29460
 845.32;  183.343;  185.444;  182.083;-2.10062
 845.88;  211.583;  214.084;  212.597;-2.50064
 846.44;  221.733;  224.241;  221.439;-2.50766
 846.99;  232.179;  234.728;  234.014;-2.54968
 847.55;  211.421;  213.945;  211.176;-2.52470
 848.11;  182.829;  185.082;  184.253;-2.25372
 848.67;  210.398;  211.981;  209.677;-1.58374
 849.23;  188.518;  190.398;  187.354;-1.88076
 849.79;  208.565;  210.904;  207.754;-2.33978
 850.34;  215.688;  218.550;  217.249;-2.86280
 850.90;  189.636;  190.252;  198.598;-0.61683
 851.46;  240.778;  227.328;  284.448;13.45015
 852.02;  247.656;  226.958;  310.051;20.69813
 852.58;  195.048;  185.919;  226.479; 9.12911
 853.13;  205.380;  205.795;  212.880;-0.41491
 853.69;  205.761;  209.143;  207.591;-3.38193
 854.25;  241.598;  244.233;  240.958;-2.63495
 854.81;  202.714;  204.708;  201.292;-1.99397
 855.37;  205.417;  208.307;  203.110;-2.88999
 855.92;  226.496;  229.252;  225.933;-2.75601
 856.48;  205.421;  208.377;  204.808;-2.95603
 857.04;  226.002;  228.688;  224.937;-2.68605
 857.60;  222.993;  226.150;  221.691;-3.15708
 858.16;  218.446;  221.937;  217.639;-3.49110
 858.71;  228.777;  231.243;  227.251;-2.46612
 859.27;  211.054;  214.382;  210.295;-3.32814
 859.83;  211.484;  213.217;  211.887;-1.73316
 860.39;  209.108;  211.025;  207.988;-1.91718
 860.94;  209.082;  211.447;  208.898;-2.36520
 861.50;  202.456;  204.777;  202.645;-2.32122
 862.06;  217.003;  220.290;  216.264;-3.28724
 862.61;  216.857;  219.647;  216.371;-2.79026
 863.17;  188.185;  190.978;  187.515;-2.79328
 863.73;  224.378;  225.883;  223.272;-1.50530
 864.29;  211.941;  215.231;  211.240;-3.29033
 864.84;  220.503;  223.541;  219.672;-3.03735
 865.40;  219.865;  221.994;  219.038;-2.12837
 865.96;  206.470;  207.350;  208.804;-0.87939
 866.51;  214.545;  214.031;  222.897; 0.51459
 867.07;  222.607;  224.850;  228.737;-2.24243
 867.63;  237.051;  238.737;  236.493;-1.68545
 868.18;  230.229;  232.868;  229.520;-2.63847
 868.74;  231.448;  233.738;  230.043;-2.28949
 869.30;  214.996;  217.828;  213.752;-2.83151
 869.86;  201.734;  204.089;  201.508;-2.35453
 870.41;  238.280;  240.623;  237.917;-2.34255
 870.97;  211.326;  213.714;  209.444;-2.38758
 871.52;  214.098;  217.067;  212.542;-2.96860
 872.08;  235.621;  238.127;  235.584;-2.50562
 872.64;  218.892;  221.349;  218.988;-2.45664
 873.19;  196.477;  199.040;  195.874;-2.56266
 873.75;  210.314;  212.121;  209.072;-1.80768
 874.31;  204.687;  207.322;  203.565;-2.63570
 874.86;  227.169;  230.177;  226.270;-3.00870
 875.42;  238.439;  240.846;  237.359;-2.40770
 875.98;  219.191;  222.242;  218.238;-3.05170
 876.53;  218.856;  222.295;  218.441;-3.43970
 877.09;  237.734;  241.741;  237.172;-4.00770
 877.64;  221.003;  222.889;  219.847;-1.88670
 878.20;  217.339;  219.631;  217.135;-2.29270
 878.76;  231.966;  233.231;  230.433;-1.26570
 879.31;  191.876;  194.131;  191.037;-2.25570
 879.87;  225.631;  228.032;  225.200;-2.40170
 880.42;  219.228;  221.918;  218.426;-2.69070
 880.98;  208.161;  210.557;  206.335;-2.39670
 881.54;  240.697;  243.424;  239.657;-2.72770
 882.09;  217.125;  220.116;  217.616;-2.99170
 882.65;  234.452;  237.168;  233.592;-2.71670
 883.20;  228.692;  231.489;  227.445;-2.79770
 883.76;  230.268;  233.743;  229.491;-3.47570
 884.31;  224.981;  226.603;  222.772;-1.62270
 884.87;  254.470;  256.524;  252.670;-2.05470
 885.42;  215.925;  219.318;  214.634;-3.39370
 885.98;  203.486;  206.523;  203.171;-3.03770
 886.53;  223.366;  226.290;  221.606;-2.92470
 887.09;  234.925;  237.940;  233.277;-3.01570
 887.65;  226.351;  229.196;  227.075;-2.84570
 888.20;  220.476;  223.925;  219.081;-3.44970
 888.76;  217.171;  220.715;  216.553;-3.54470
 889.31;  228.197;  230.708;  227.063;-2.51170
 889.87;  228.632;  230.738;  226.933;-2.10670
 890.42;  220.601;  222.643;  219.404;-2.04270
 890.98;  224.718;  229.285;  224.217;-4.56770
 891.53;  199.165;  201.177;  198.956;-2.01270
 892.09;  235.230;  238.930;  233.343;-3.70070
 892.64;  218.022;  220.890;  217.915;-2.86870
 893.19;  222.785;  225.413;  221.488;-2.62870
 893.75;  207.806;  210.257;  206.559;-2.45170
 894.30;  238.025;  240.083;  236.042;-2.05870
 894.86;  205.939;  208.500;  205.145;-2.56170
 895.41;  244.577;  246.450;  242.484;-1.87370
 895.97;  207.537;  210.036;  207.451;-2.49970
 896.52;  243.613;  246.870;  244.098;-3.25770
 897.08;  226.640;  229.928;  227.097;-3.28870
 897.63;  242.595;  246.046;  242.463;-3.45170
 898.19;  225.181;  226.919;  221.941;-1.73870
 898.74;  243.868;  247.075;  241.964;-3.20770
 899.29;  241.434;  245.273;  241.423;-3.83970
 899.85;  217.565;  221.740;  217.840;-4.17570
 900.40;  225.158;  226.652;  224.623;-1.49470
 900.96;  226.390;  228.804;  224.386;-2.41470
 901.51;  222.596;  226.461;  221.344;-3.86570
 902.06;  225.762;  229.154;  225.298;-3.39270
 902.62;  236.474;  240.257;  235.915;-3.78370
 903.17;  233.427;  235.968;  232.176;-2.54170
 903.73;  235.859;  237.288;  235.707;-1.42970
 904.28;  216.433;  221.110;  216.385;-4.67770
 904.83;  249.804;  252.668;  249.126;-2.86470
 905.39;  203.038;  206.849;  202.872;-3.81170
 905.94;  229.612;  232.762;  229.504;-3.15070
 906.50;  239.995;  242.708;  239.323;-2.71370
 907.05;  220.452;  223.208;  219.363;-2.75670
 907.60;  238.073;  240.532;  236.963;-2.45970
 908.16;  228.200;  230.390;  228.085;-2.19070
 908.71;  230.196;  232.919;  229.913;-2.72370
 909.26;  233.477;  236.041;  233.397;-2.56470
 909.82;  227.098;  228.579;  227.376;-1.48170
 910.37;  230.292;  232.106;  235.399;-1.81470
 910.92;  249.184;  242.182;  281.745; 7.00130
 911.48;  301.061;  240.046;  481.890;61.01430
 912.03;  312.696;  213.506;  613.633;99.18930
 912.58;  284.220;  230.910;  476.373;53.30930
 913.14;  245.722;  236.834;  301.799; 8.88730
 913.69;  258.627;  259.090;  269.488;-0.46370
 914.24;  217.440;  219.311;  222.219;-1.87170
 914.79;  217.200;  219.736;  218.365;-2.53670
 915.35;  234.821;  236.230;  234.392;-1.40970
 915.90;  239.669;  242.465;  240.487;-2.79670
 916.45;  218.419;  221.242;  218.208;-2.82370
 917.01;  232.941;  237.045;  232.894;-4.10470
 917.56;  229.273;  230.356;  227.311;-1.08370
 918.11;  227.235;  229.497;  226.003;-2.26270
 918.66;  221.747;  224.129;  220.789;-2.38270
 919.22;  236.554;  240.044;  236.207;-3.49070
 919.77;  221.071;  223.635;  221.133;-2.56470
 920.32;  225.021;  227.047;  224.244;-2.02670
 920.87;  231.662;  232.274;  232.864;-0.61270
 921.43;  228.372;  225.202;  250.486; 3.16930
 921.98;  228.578;  213.204;  276.799;15.37330
 922.53;  229.524;  217.440;  271.522;12.08330
 923.08;  229.105;  228.020;  245.586; 1.08430
 923.64;  228.047;  229.200;  232.794;-1.15370
 924.19;  229.548;  233.323;  231.064;-3.77570
 924.74;  209.652;  212.539;  211.372;-2.88770
 925.29;  260.565;  262.397;  260.667;-1.83270
 925.84;  234.249;  237.061;  234.899;-2.81270
 926.40;  213.192;  216.508;  212.506;-3.31670
 926.95;  215.992;  218.243;  214.402;-2.25170
 927.50;  216.710;  219.375;  216.696;-2.66570
 928.05;  227.335;  229.965;  226.066;-2.63070
 928.60;  211.853;  215.523;  210.903;-3.67070
 929.15;  228.768;  230.880;  228.948;-2.11270
 929.71;  239.370;  242.676;  238.862;-3.30670
 930.26;  220.736;  222.682;  220.145;-1.94670
 930.81;  227.438;  229.181;  226.373;-1.74370
 931.36;  235.607;  239.031;  235.832;-3.42470
 931.91;  242.932;  245.393;  241.662;-2.46170
 932.46;  239.754;  241.385;  237.655;-1.63170
 933.02;  225.934;  227.525;  224.869;-1.59170
 933.57;  213.109;  215.460;  211.497;-2.35170
 934.12;  214.097;  215.440;  212.075;-1.34370
 934.67;  230.736;  232.845;  232.336;-2.10970
 935.22;  222.439;  224.509;  225.680;-2.07070
 935.77;  247.923;  250.605;  247.265;-2.68270
 936.32;  233.508;  236.352;  233.242;-2.84470
 936.87;  235.005;  238.464;  234.404;-3.45970
 937.42;  228.278;  233.718;  230.149;-5.44070
 937.98;  210.971;  213.547;  211.733;-2.57670
 938.53;  222.392;  226.826;  221.566;-4.43470
 939.08;  213.603;  216.235;  213.091;-2.63270
 939.63;  234.931;  238.121;  233.627;-3.19070
 940.18;  244.941;  248.052;  245.398;-3.11170
 940.73;  224.439;  226.755;  224.525;-2.31670
 941.28;  210.028;  213.214;  210.218;-3.18670
 941.83;  218.837;  222.208;  218.300;-3.37170
 942.38;  213.207;  216.460;  212.832;-3.25370
 942.93;  228.396;  232.922;  228.633;-4.52670
 943.48;  226.489;  231.096;  227.078;-4.60770
 944.03;  212.206;  214.050;  210.439;-1.84470
 944.58;  217.670;  219.135;  217.194;-1.46570
 945.13;  212.525;  216.153;  212.387;-3.62870
 945.68;  205.741;  208.540;  206.217;-2.79970
 946.23;  215.369;  217.670;  213.880;-2.30170
 946.79;  214.250;  217.395;  214.171;-3.14570
 947.34;  233.964;  237.428;  232.911;-3.46470
 947.89;  238.926;  241.466;  238.836;-2.54070
 948.44;  219.286;  222.454;  219.284;-3.16870
 948.99;  218.308;  220.752;  216.924;-2.44470
 949.54;  232.389;  234.806;  230.186;-2.41770
 950.09;  217.097;  219.000;  216.219;-1.90370
 950.64;  215.321;  217.469;  213.164;-2.14870
 951.19;  196.769;  199.464;  195.816;-2.69570
 951.73;  188.666;  191.189;  187.208;-2.52370
 952.28;  231.429;  233.343;  230.870;-1.91470
 952.83;  224.384;  226.795;  222.726;-2.41170
 953.38;  243.485;  247.102;  243.581;-3.61770
 953.93;  217.724;  220.679;  216.650;-2.95570
 954.48;  219.106;  222.478;  219.371;-3.37270
 955.03;  224.036;  226.571;  222.641;-2.53570
 955.58;  219.936;  224.673;  220.638;-4.73770
 956.13;  193.227;  196.209;  192.119;-2.98270
 956.68;  204.426;  207.758;  204.813;-3.33270
 957.23;  192.486;  195.082;  190.369;-2.59670
 957.78;  205.427;  207.891;  204.342;-2.46470
 958.33;  184.839;  187.886;  184.908;-3.04770
 958.88;  213.727;  216.637;  214.074;-2.91070
 959.43;  220.589;  223.071;  220.660;-2.48270
 959.98;  207.635;  210.963;  207.110;-3.32870
 960.53;  235.864;  241.196;  235.735;-5.33270
 961.07;  207.424;  210.595;  205.337;-3.17170
 961.62;  251.485;  253.181;  250.070;-1.69670
 962.17;  213.275;  217.605;  213.949;-4.33070
 962.72;  218.575;  222.456;  217.978;-3.88170
 963.27;  218.452;  221.585;  218.272;-3.13370
 963.82;  206.275;  209.494;  207.269;-3.21970
 964.37;  231.074;  231.135;  240.124;-0.06170
 964.92;  223.579;  212.368;  264.450;11.21030
 965.46;  218.493;  201.226;  280.889;17.26630
 966.01;  221.937;  214.365;  262.804; 7.57130
 966.56;  226.720;  227.062;  237.515;-0.34270
 967.11;  225.833;  228.344;  227.550;-2.51170
 967.66;  212.894;  215.327;  213.586;-2.43370
 968.21;  207.277;  210.560;  208.194;-3.28370
 968.75;  226.434;  229.508;  224.204;-3.07470
 969.30;  217.466;  219.654;  216.833;-2.18870
 969.85;  236.016;  238.621;  233.361;-2.60570
 970.40;  223.045;  226.471;  220.821;-3.42670
 970.95;  228.253;  230.410;  226.071;-2.15770
 971.50;  223.860;  226.693;  223.994;-2.83370
 972.04;  224.774;  228.668;  225.460;-3.89470
 972.59;  234.537;  237.900;  233.089;-3.36370
 973.14;  227.737;  230.143;  226.225;-2.40670
 973.69;  237.186;  239.779;  235.642;-2.59370
 974.24;  220.223;  224.362;  220.206;-4.13970
 974.78;  216.445;  219.900;  215.873;-3.45570
 975.33;  247.285;  249.893;  245.834;-2.60870
 975.88;  230.454;  234.224;  229.422;-3.77070
 976.43;  228.337;  231.270;  227.200;-2.93370
 976.97;  222.691;  225.476;  220.970;-2.78570
 977.52;  211.696;  213.921;  212.176;-2.22570
 978.07;  258.657;  259.339;  261.140;-0.68270
 978.62;  247.745;  250.695;  249.999;-2.95070
 979.16;  244.816;  247.323;  245.899;-2.50770
 979.71;  212.789;  214.525;  211.338;-1.73670
 980.26;  233.805;  236.525;  233.353;-2.72070
 980.81;  231.811;  235.423;  230.718;-3.61270
 981.35;  256.820;  257.470;  254.809;-0.65070
 981.90;  244.945;  247.220;  241.517;-2.27570
 982.45;  240.183;  244.110;  240.405;-3.92770
 982.99;  242.643;  246.699;  242.664;-4.05670
 983.54;  241.426;  244.785;  239.293;-3.35970
 984.09;  232.607;  235.596;  231.355;-2.98970
 984.63;  229.668;  232.859;  228.448;-3.19170
 985.18;  244.025;  245.675;  242.377;-1.65070
 985.73;  236.544;  240.310;  235.860;-3.76670
 986.27;  226.370;  229.021;  224.967;-2.65170
 986.82;  233.858;  236.714;  233.190;-2.85670
 987.37;  248.445;  252.461;  246.808;-4.01670
 987.91;  238.741;  242.035;  236.652;-3.29470
 988.46;  247.676;  250.907;  247.721;-3.23170
 989.01;  239.708;  243.046;  237.572;-3.33870
 989.55;  242.068;  245.620;  241.214;-3.55270
 990.10;  249.790;  252.758;  248.030;-2.96870
 990.65;  264.958;  267.722;  262.831;-2.76470
 991.19;  236.628;  240.603;  236.217;-3.97570
 991.74;  255.726;  258.469;  254.016;-2.74370
 992.29;  243.830;  247.749;  243.190;-3.91970
 992.83;  257.251;  259.957;  254.085;-2.70670
 993.38;  250.511;  253.418;  247.359;-2.90770
 993.92;  229.294;  231.532;  226.472;-2.23870
 994.47;  218.418;  221.206;  216.807;-2.78870
 995.02;  238.573;  240.940;  236.735;-2.36770
 995.56;  258.191;  261.084;  256.692;-2.89370
 996.11;  247.720;  250.205;  246.882;-2.48570
 996.65;  248.629;  251.539;  247.876;-2.91070
 997.20;  241.677;  246.573;  240.294;-4.89670
 997.75;  240.721;  244.305;  239.437;-3.58470
 998.29;  217.584;  220.107;  216.133;-2.52370
 998.84;  246.289;  250.724;  245.329;-4.43570
 999.38;  248.021;  250.042;  244.812;-2.02170
 999.93;  262.467;  267.209;  261.675;-4.74270
1000.47;  260.174;  264.324;  260.831;-4.15070
1001.02;  254.883;  257.092;  253.386;-2.20970
1001.56;  240.855;  244.824;  239.780;-3.96970
1002.11;  231.936;  234.738;  230.445;-2.80270
1002.65;  225.632;  228.565;  223.243;-2.93370
1003.20;  233.844;  237.052;  231.881;-3.20870
1003.75;  266.792;  269.606;  266.036;-2.81470
1004.29;  235.020;  238.538;  233.303;-3.51870
1004.84;  220.267;  223.671;  220.546;-3.40470
1005.38;  222.943;  227.224;  222.859;-4.28170
1005.93;  242.590;  246.906;  241.364;-4.31670
1006.47;  221.357;  224.462;  220.692;-3.10570
1007.02;  230.092;  231.833;  227.662;-1.74170
1007.56;  243.881;  247.433;  242.798;-3.55270
1008.11;  251.042;  252.720;  249.411;-1.67870
1008.65;  208.896;  212.672;  207.079;-3.77670
1009.19;  237.164;  240.140;  236.390;-2.97670
1009.74;  232.313;  236.623;  231.223;-4.31070
1010.28;  235.415;  238.127;  234.215;-2.71270
1010.83;  243.830;  246.572;  242.437;-2.74270
1011.37;  236.432;  240.282;  235.037;-3.85070
1011.92;  235.339;  238.095;  235.208;-2.75670
1012.46;  230.223;  231.437;  230.410;-1.21470
1013.01;  273.188;  267.813;  282.128; 5.37430
1013.55;  247.738;  236.714;  261.377;11.02330
1014.09;  237.850;  232.679;  247.080; 5.17030
1014.64;  229.655;  232.536;  235.199;-2.88170
1015.18;  226.679;  228.881;  226.875;-2.20270
1015.73;  221.508;  223.733;  221.345;-2.22570
1016.27;  241.976;  244.244;  239.850;-2.26870
1016.82;  233.305;  237.116;  232.899;-3.81170
1017.36;  225.923;  228.573;  224.463;-2.65070
1017.90;  215.820;  219.031;  214.821;-3.21170
1018.45;  211.086;  215.172;  209.010;-4.08670
1018.99;  211.495;  214.070;  213.271;-2.57570
1019.53;  200.293;  203.228;  199.948;-2.93570
1020.08;  228.299;  230.973;  227.485;-2.67470
1020.62;  230.042;  232.690;  229.827;-2.64870
1021.17;  233.205;  236.888;  232.392;-3.68370
1021.71;  233.691;  236.822;  232.866;-3.13170
1022.25;  241.661;  244.782;  239.904;-3.12170
1022.80;  215.070;  218.831;  214.907;-3.76170
1023.34;  211.709;  216.610;  211.512;-4.90170
1023.88;  226.272;  231.207;  224.103;-4.93570
1024.43;  230.013;  232.772;  229.391;-2.75970
1024.97;  233.360;  237.512;  233.233;-4.15270
1025.51;  213.129;  216.658;  213.395;-3.52970
1026.06;  229.111;  232.703;  227.836;-3.59270
1026.60;  234.185;  236.932;  233.723;-2.74770
1027.14;  246.705;  249.520;  244.366;-2.81570
1027.69;  234.480;  237.157;  232.097;-2.67770
1028.23;  228.667;  231.829;  228.253;-3.16270
1028.77;  213.780;  216.286;  212.300;-2.50670
1029.31;  226.295;  228.645;  224.128;-2.35070
1029.86;  217.980;  220.976;  216.083;-2.99670
1030.40;  263.059;  266.957;  262.077;-3.89870
1030.94;  232.384;  235.602;  232.446;-3.21870
1031.48;  243.255;  244.798;  240.883;-1.54370
1032.03;  230.129;  232.974;  227.501;-2.84570
1032.57;  231.619;  233.237;  229.752;-1.61870
1033.11;  226.912;  229.291;  224.720;-2.37970
1033.65;  215.976;  218.770;  213.877;-2.79470
1034.20;  236.029;  239.433;  235.433;-3.40470
1034.74;  233.221;  237.444;  231.019;-4.22370
1035.28;  233.690;  235.133;  231.832;-1.44370
1035.82;  210.587;  212.102;  209.377;-1.51570
1036.37;  222.913;  227.358;  221.872;-4.44570
1036.91;  248.417;  252.225;  248.405;-3.80870
1037.45;  238.717;  242.746;  237.398;-4.02970
1037.99;  229.864;  232.628;  227.965;-2.76470
1038.53;  229.467;  233.175;  229.202;-3.70870
1039.08;  218.514;  221.923;  217.129;-3.40970
1039.62;  218.551;  221.811;  215.711;-3.26070
1040.16;  221.964;  225.614;  220.940;-3.65070
1040.70;  228.155;  231.381;  226.788;-3.22670
1041.24;  243.983;  247.323;  243.321;-3.34070
1041.79;  218.899;  221.850;  217.096;-2.95170
1042.33;  226.871;  228.640;  223.935;-1.76970
1042.87;  218.817;  221.520;  216.620;-2.70370
1043.41;  223.743;  227.631;  221.794;-3.88870
1043.95;  235.456;  238.994;  234.674;-3.53870
1044.49;  204.195;  207.804;  204.268;-3.60970
1045.04;  235.149;  238.040;  234.685;-2.89170
1045.58;  227.029;  230.631;  225.050;-3.60270
1046.12;  257.012;  261.397;  256.429;-4.38570
1046.66;  238.605;  241.752;  239.465;-3.14770
1047.20;  219.758;  222.346;  220.647;-2.58870
1047.74;  252.182;  257.442;  252.264;-5.26070
1048.28;  235.204;  237.555;  234.715;-2.35170
1048.82;  251.195;  254.263;  249.899;-3.06870
1049.36;  254.188;  257.431;  252.537;-3.24370
1049.91;  242.683;  244.699;  240.839;-2.01670
1050.45;  235.290;  237.715;  233.443;-2.42570
1050.99;  255.301;  257.972;  253.565;-2.67170
1051.53;  259.197;  261.630;  258.198;-2.43370
1052.07;  232.915;  235.932;  231.546;-3.01770
1052.61;  233.343;  237.559;  231.951;-4.21670
1053.15;  244.178;  247.051;  242.976;-2.87370
1053.69;  237.115;  239.441;  236.380;-2.32670
1054.23;  241.622;  245.890;  241.171;-4.26870
1054.77;  256.806;  260.772;  255.399;-3.96670
1055.31;  241.098;  244.026;  239.084;-2.92870
1055.85;  232.107;  236.281;  232.209;-4.17470
1056.39;  233.416;  236.749;  231.936;-3.33370
1056.93;  242.058;  245.006;  240.459;-2.94870
1057.47;  253.299;  255.638;  250.912;-2.33970
1058.01;  249.663;  253.134;  248.715;-3.47170
1058.55;  246.388;  250.173;  246.950;-3.78570
1059.09;  246.803;  250.724;  246.105;-3.92170
1059.63;  254.744;  258.518;  252.957;-3.77470
1060.17;  267.715;  271.402;  266.822;-3.68770
1060.71;  233.773;  236.022;  231.876;-2.24970
1061.25;  244.882;  248.550;  243.753;-3.66870
1061.79;  245.557;  249.245;  243.820;-3.68870
1062.33;  238.011;  241.609;  237.818;-3.59870
1062.87;  269.005;  272.206;  267.178;-3.20170
1063.41;  248.200;  250.170;  245.913;-1.97070
1063.95;  254.873;  257.994;  253.445;-3.12170
1064.49;  235.766;  238.396;  236.618;-2.63070
1065.03;  293.037;  296.704;  291.184;-3.66770
1065.57;  265.456;  270.216;  263.442;-4.76070
1066.11;  248.019;  250.404;  245.700;-2.38570
1066.65;  243.590;  247.966;  242.225;-4.37670
1067.19;  260.985;  264.328;  258.730;-3.34370
1067.73;  270.345;  272.864;  267.504;-2.51970
1068.27;  237.744;  242.198;  236.573;-4.45470
1068.81;  244.262;  248.219;  242.997;-3.95770
1069.35;  269.370;  272.494;  267.481;-3.12470
1069.89;  235.213;  239.494;  234.383;-4.28170
1070.43;  259.700;  263.514;  259.943;-3.81470
1070.96;  257.022;  261.175;  254.939;-4.15370
1071.50;  257.169;  259.205;  253.966;-2.03670
1072.04;  251.553;  254.928;  249.432;-3.37570
1072.58;  256.892;  260.967;  255.917;-4.07570
1073.12;  267.896;  270.697;  266.714;-2.80170
1073.66;  239.220;  242.694;  237.410;-3.47470
1074.20;  247.038;  250.650;  248.196;-3.61270
1074.74;  255.837;  258.221;  253.551;-2.38470
1075.27;  243.065;  246.118;  243.897;-3.05370
1075.81;  245.236;  247.862;  243.029;-2.62670
1076.35;  251.505;  254.689;  249.120;-3.18470
1076.89;  253.999;  256.565;  251.325;-2.56670
1077.43;  270.149;  272.947;  267.999;-2.79870
1077.97;  257.691;  260.391;  256.720;-2.70070
1078.50;  254.281;  258.435;  252.985;-4.15470
1079.04;  245.859;  248.393;  242.128;-2.53470
1079.58;  249.844;  254.955;  249.444;-5.11170
1080.12;  246.542;  250.083;  245.012;-3.54170
1080.66;  262.505;  266.546;  260.419;-4.04170
1081.20;  240.091;  244.011;  239.541;-3.92070
1081.73;  235.691;  239.497;  233.654;-3.80670
1082.27;  255.792;  260.170;  252.998;-4.37870
1082.81;  258.472;  262.334;  257.378;-3.86270
1083.35;  250.904;  253.962;  248.599;-3.05870
1083.88;  249.967;  254.193;  248.179;-4.22670
1084.42;  265.874;  268.895;  265.394;-3.02170
1084.96;  243.649;  245.945;  241.314;-2.29670
1085.50;  252.157;  254.803;  249.738;-2.64670
1086.04;  249.018;  250.790;  246.985;-1.77270
1086.57;  273.279;  277.019;  271.691;-3.74070
1087.11;  250.561;  253.851;  249.705;-3.29070
1087.65;  241.144;  245.599;  240.281;-4.45570
1088.19;  266.148;  268.889;  264.683;-2.74170
1088.72;  249.940;  252.668;  249.220;-2.72870
1089.26;  242.669;  246.426;  240.830;-3.75770
1089.80;  237.342;  239.921;  235.334;-2.57970
1090.33;  274.284;  277.901;  273.528;-3.61770
1090.87;  229.968;  233.943;  227.543;-3.97570
1091.41;  234.819;  238.609;  233.488;-3.79070
1091.95;  252.795;  256.121;  250.943;-3.32670
1092.48;  264.652;  268.358;  263.655;-3.70670
1093.02;  237.029;  240.535;  235.415;-3.50670
1093.56;  255.283;  259.101;  254.412;-3.81870
1094.09;  230.861;  234.847;  229.661;-3.98670
1094.63;  232.093;  235.308;  230.537;-3.21570
1095.17;  237.583;  241.362;  236.861;-3.77970
1095.70;  251.831;  255.838;  250.037;-4.00770
1096.24;  239.014;  242.660;  237.502;-3.64670
1096.78;  236.269;  239.928;  234.609;-3.65970
1097.31;  238.924;  242.207;  237.279;-3.28370
1097.85;  245.300;  248.544;  243.933;-3.24470
1098.39;  229.362;  232.669;  227.157;-3.30770
1098.92;  243.090;  246.951;  243.537;-3.86170
1099.46;  251.480;  254.286;  249.128;-2.80670
1099.99;  240.123;  244.255;  239.172;-4.13270
1100.53;  245.719;  249.382;  244.501;-3.66370

