
Integration time [ms]:   0.100
Averaging Nr. [scans]: 1000
Smoothing Nr. [pixels]: 0
Data measured with spectrometer [name]: 7213323SP
Wave   ;Sample   ;Dark     ;Reference;Scope Corrected for Dark
[nm]   ;[counts] ;[counts] ;[counts] ;[counts] 

 175.65;  183.165;  185.783;  180.414;-2.61830
 176.25;  203.079;  205.927;  201.051;-2.84819
 176.85;  199.950;  202.683;  197.041;-2.73351
 177.45;  200.314;  203.508;  199.894;-3.19413
 178.05;  191.510;  193.685;  190.085;-2.17508
 178.65;  190.303;  193.947;  189.195;-3.64383
 179.25;  185.765;  189.491;  186.282;-3.72570
 179.85;  193.808;  197.291;  191.669;-3.48319
 180.45;  186.858;  188.606;  185.031;-1.74795
 181.05;  227.929;  231.340;  226.588;-3.41077
 181.65;  188.745;  192.091;  188.083;-3.34585
 182.25;  209.785;  211.949;  206.883;-2.16360
 182.86;  204.456;  207.996;  202.121;-3.53960
 183.46;  203.428;  206.147;  200.708;-2.71909
 184.06;  185.550;  189.341;  185.033;-3.79146
 184.66;  166.772;  169.990;  164.643;-3.21841
 185.26;  210.126;  213.061;  214.998;-2.93510
 185.86;  191.844;  193.960;  191.880;-2.11646
 186.46;  212.417;  214.994;  211.614;-2.57697
 187.06;  194.825;  196.902;  194.406;-2.07734
 187.66;  216.084;  219.094;  216.525;-3.01013
 188.26;  222.219;  223.645;  220.940;-1.42606
 188.86;  201.250;  202.311;  200.640;-1.06055
 189.46;  197.257;  199.956;  198.052;-2.69890
 190.06;  188.222;  190.583;  188.358;-2.36080
 190.66;  194.555;  196.091;  194.493;-1.53596
 191.26;  212.260;  214.076;  212.779;-1.81581
 191.86;  208.342;  210.199;  207.622;-1.85699
 192.46;  206.345;  209.408;  206.770;-3.06282
 193.06;  208.265;  210.877;  207.841;-2.61236
 193.66;  198.091;  200.410;  199.942;-2.31938
 194.26;  215.674;  217.694;  218.472;-2.02027
 194.86;  183.661;  184.639;  184.097;-0.97784
 195.46;  190.630;  191.975;  189.176;-1.34476
 196.06;  202.808;  205.195;  202.533;-2.38705
 196.66;  180.255;  183.302;  181.286;-3.04724
 197.26;  180.357;  182.502;  180.080;-2.14541
 197.86;  211.689;  212.390;  210.197;-0.70126
 198.46;  178.140;  180.583;  179.072;-2.44312
 199.06;  206.630;  209.579;  206.441;-2.94889
 199.66;  195.625;  197.179;  194.867;-1.55388
 200.26;  184.975;  186.929;  185.670;-1.95355
 200.85;  202.331;  204.678;  202.080;-2.34692
 201.45;  194.161;  196.412;  195.434;-2.25064
 202.05;  195.995;  197.534;  195.645;-1.53886
 202.65;  190.308;  193.343;  189.896;-3.03498
 203.25;  181.366;  182.811;  181.206;-1.44479
 203.85;  195.400;  197.717;  195.949;-2.31715
 204.45;  225.215;  226.232;  226.293;-1.01693
 205.05;  170.772;  172.215;  170.599;-1.44305
 205.65;  177.295;  180.256;  177.581;-2.96104
 206.25;  204.017;  206.201;  205.331;-2.18302
 206.85;  183.435;  186.155;  183.435;-2.72031
 207.45;  191.255;  193.446;  191.637;-2.19130
 208.05;  179.838;  182.052;  180.242;-2.21404
 208.65;  182.532;  183.924;  182.976;-1.39196
 209.25;  174.865;  177.281;  174.426;-2.41591
 209.84;  203.910;  204.778;  203.273;-0.86786
 210.44;  184.402;  185.831;  184.524;-1.42910
 211.04;  218.302;  220.826;  219.523;-2.52426
 211.64;  185.342;  186.519;  184.227;-1.17673
 212.24;  196.637;  197.061;  196.408;-0.42443
 212.84;  191.116;  192.686;  191.061;-1.56978
 213.44;  178.704;  179.742;  179.735;-1.03826
 214.04;  177.403;  179.422;  178.889;-2.01942
 214.64;  194.264;  196.010;  196.183;-1.74626
 215.24;  174.839;  176.617;  175.860;-1.77758
 215.83;  196.340;  197.577;  195.308;-1.23684
 216.43;  164.016;  165.306;  164.475;-1.29039
 217.03;  171.553;  173.213;  173.835;-1.66038
 217.63;  175.379;  178.375;  178.008;-2.99586
 218.23;  185.880;  188.109;  187.688;-2.22859
 218.83;  178.256;  179.774;  179.547;-1.51839
 219.43;  174.601;  176.967;  177.218;-2.36649
 220.03;  167.379;  169.902;  168.913;-2.52259
 220.62;  174.204;  174.413;  174.999;-0.20915
 221.22;  183.654;  184.038;  185.496;-0.38422
 221.82;  188.090;  189.802;  189.660;-1.71176
 222.42;  165.994;  167.270;  168.935;-1.27551
 223.02;  180.763;  181.217;  182.327;-0.45375
 223.62;  173.223;  171.654;  175.421; 1.56930
 224.22;  192.419;  191.896;  195.708; 0.52311
 224.81;  185.033;  185.750;  190.209;-0.71722
 225.41;  184.549;  185.009;  189.807;-0.46011
 226.01;  169.917;  170.181;  175.050;-0.26367
 226.61;  174.435;  172.916;  178.854; 1.51915
 227.21;  173.600;  173.765;  178.313;-0.16501
 227.81;  199.170;  198.744;  205.112; 0.42552
 228.40;  167.350;  166.154;  172.708; 1.19618
 229.00;  174.936;  173.395;  181.048; 1.54096
 229.60;  178.047;  176.512;  183.766; 1.53504
 230.20;  204.021;  201.884;  211.512; 2.13674
 230.80;  164.922;  163.338;  172.378; 1.58418
 231.39;  162.400;  160.293;  169.722; 2.10657
 231.99;  179.296;  178.183;  189.251; 1.11302
 232.59;  207.577;  204.573;  217.599; 3.00415
 233.19;  176.977;  173.410;  188.513; 3.56653
 233.79;  189.773;  186.319;  202.434; 3.45411
 234.38;  176.023;  172.812;  190.099; 3.21052
 234.98;  183.155;  178.647;  196.074; 4.50789
 235.58;  186.823;  181.406;  201.586; 5.41709
 236.18;  198.938;  193.264;  212.456; 5.67432
 236.78;  187.357;  182.090;  202.247; 5.26744
 237.37;  200.642;  191.811;  218.441; 8.83096
 237.97;  204.000;  197.556;  224.600; 6.44414
 238.57;  207.177;  198.851;  226.967; 8.32571
 239.17;  177.940;  168.430;  198.792; 9.50968
 239.76;  197.926;  187.085;  220.862;10.84134
 240.36;  188.660;  176.163;  212.675;12.49707
 240.96;  216.547;  204.218;  243.349;12.32906
 241.56;  185.094;  173.281;  211.808;11.81277
 242.15;  195.633;  179.736;  223.065;15.89680
 242.75;  214.974;  198.403;  246.418;16.57119
 243.35;  193.629;  177.349;  226.927;16.28002
 243.95;  206.416;  186.928;  243.754;19.48838
 244.54;  219.309;  201.186;  259.178;18.12334
 245.14;  214.730;  194.469;  258.872;20.26069
 245.74;  233.835;  212.340;  280.750;21.49456
 246.34;  208.480;  183.537;  260.989;24.94308
 246.93;  224.654;  197.063;  283.881;27.59089
 247.53;  187.594;  153.235;  263.537;34.35890
 248.13;  238.759;  193.395;  330.762;45.36447
 248.73;  227.778;  181.770;  312.884;46.00777
 249.32;  229.043;  185.280;  307.340;43.76290
 249.92;  220.292;  175.296;  313.021;44.99631
 250.52;  246.710;  191.298;  364.988;55.41209
 251.11;  263.115;  192.564;  413.921;70.55122
 251.71;  309.327;  207.719;  535.383;101.60793
 252.31;  392.381;  163.680; 1116.602;228.70092
 252.91; 3349.523;  187.361;12306.623;3162.16202
 253.50;13656.715;  154.812;38070.578;13501.90258
 254.10;14987.207;  198.001;33115.004;14789.20624
 254.70; 4032.249;  166.640; 7397.543;3865.60890
 255.29;  451.619;  201.462;  779.898;250.15712
 255.89;  294.810;  184.944;  427.893;109.86551
 256.49;  245.785;  168.140;  337.986;77.64468
 257.08;  228.771;  174.424;  312.391;54.34675
 257.68;  235.870;  190.194;  307.577;45.67597
 258.28;  226.046;  187.081;  290.710;38.96524
 258.87;  225.829;  191.826;  281.589;34.00279
 259.47;  207.014;  177.615;  256.904;29.39934
 260.07;  211.563;  184.430;  258.984;27.13307
 260.66;  185.936;  160.137;  230.508;25.79912
 261.26;  232.531;  209.045;  273.389;23.48567
 261.86;  222.192;  200.756;  260.153;21.43560
 262.45;  196.248;  176.279;  231.401;19.96934
 263.05;  195.371;  176.522;  230.199;18.84873
 263.65;  193.918;  178.642;  226.449;15.27552
 264.24;  208.691;  193.555;  241.350;15.13608
 264.84;  229.917;  205.161;  281.498;24.75574
 265.44;  217.324;  182.325;  273.867;34.99943
 266.03;  200.936;  177.647;  231.179;23.28912
 266.63;  177.141;  167.718;  197.785; 9.42285
 267.23;  192.195;  185.031;  211.605; 7.16359
 267.82;  171.886;  164.037;  187.883; 7.84863
 268.42;  180.445;  172.003;  194.649; 8.44234
 269.01;  179.100;  172.399;  194.558; 6.70086
 269.61;  187.967;  181.283;  204.840; 6.68375
 270.21;  190.376;  185.189;  207.045; 5.18717
 270.80;  209.640;  202.637;  224.414; 7.00254
 271.40;  170.156;  165.255;  183.775; 4.90052
 271.99;  205.037;  200.379;  218.373; 4.65762
 272.59;  162.401;  157.284;  177.199; 5.11706
 273.19;  173.428;  168.338;  186.254; 5.08987
 273.78;  161.773;  156.316;  175.177; 5.45699
 274.38;  175.788;  170.500;  193.021; 5.28792
 274.97;  190.029;  180.598;  212.682; 9.43071
 275.57;  192.338;  181.240;  215.124;11.09817
 276.17;  160.561;  151.526;  175.473; 9.03489
 276.76;  184.830;  179.919;  200.892; 4.91086
 277.36;  181.996;  176.316;  195.657; 5.68044
 277.95;  187.309;  181.802;  202.104; 5.50668
 278.55;  170.678;  165.621;  183.571; 5.05658
 279.14;  188.544;  182.527;  204.050; 6.01678
 279.74;  188.969;  181.713;  211.006; 7.25614
 280.34;  179.800;  166.854;  207.562;12.94571
 280.93;  216.467;  202.511;  243.101;13.95626
 281.53;  173.232;  161.140;  204.471;12.09234
 282.12;  202.528;  184.315;  242.247;18.21398
 282.72;  196.745;  175.619;  237.668;21.12569
 283.31;  198.159;  183.090;  225.194;15.06947
 283.91;  171.249;  163.396;  189.204; 7.85308
 284.50;  194.443;  190.107;  209.412; 4.33564
 285.10;  205.773;  201.548;  220.160; 4.22473
 285.69;  167.142;  161.840;  181.279; 5.30239
 286.29;  191.109;  186.696;  205.333; 4.41294
 286.89;  179.568;  175.323;  193.509; 4.24490
 287.48;  185.495;  181.152;  198.821; 4.34280
 288.08;  201.303;  195.308;  213.941; 5.99524
 288.67;  186.231;  176.735;  211.533; 9.49554
 289.27;  200.243;  177.393;  238.460;22.84968
 289.86;  196.985;  175.474;  224.048;21.51059
 290.46;  168.745;  160.923;  182.953; 7.82175
 291.05;  179.392;  175.660;  190.854; 3.73221
 291.65;  174.023;  169.699;  186.464; 4.32397
 292.24;  200.736;  195.774;  217.061; 4.96216
 292.84;  184.295;  179.766;  198.640; 4.52899
 293.43;  189.035;  184.841;  201.754; 4.19412
 294.03;  185.896;  182.158;  197.677; 3.73789
 294.62;  193.062;  188.921;  205.562; 4.14109
 295.22;  173.616;  169.760;  187.902; 3.85594
 295.81;  191.516;  183.134;  227.659; 8.38190
 296.41;  314.468;  172.707;  618.639;141.76053
 297.00;  494.883;  187.888;  879.669;306.99519
 297.60;  328.178;  177.385;  448.744;150.79280
 298.19;  205.081;  182.774;  234.456;22.30663
 298.78;  187.990;  178.714;  208.659; 9.27610
 299.38;  172.340;  165.210;  184.146; 7.12954
 299.97;  195.243;  192.233;  207.510; 3.01021
 300.57;  184.407;  179.790;  193.837; 4.61660
 301.16;  141.736;  137.570;  152.734; 4.16596
 301.76;  190.191;  175.571;  237.006;14.61954
 302.35;  233.344;  178.039;  322.268;55.30548
 302.95;  245.027;  195.801;  300.113;49.22647
 303.54;  168.694;  154.947;  188.905;13.74691
 304.14;  166.260;  159.794;  182.352; 6.46631
 304.73;  199.547;  192.017;  213.586; 7.53046
 305.32;  188.091;  182.304;  200.159; 5.78746
 305.92;  167.038;  161.694;  180.386; 5.34400
 306.51;  162.599;  158.503;  174.896; 4.09606
 307.11;  182.383;  177.229;  194.701; 5.15443
 307.70;  163.025;  156.496;  174.665; 6.52864
 308.29;  164.782;  159.940;  177.264; 4.84208
 308.89;  171.880;  167.440;  185.946; 4.44048
 309.48;  133.821;  128.932;  149.281; 4.88864
 310.08;  175.117;  168.493;  192.005; 6.62415
 310.67;  175.831;  168.955;  194.927; 6.87599
 311.27;  167.525;  153.804;  202.344;13.72065
 311.86;  238.805;  160.259;  434.649;78.54569
 312.45;  540.166;  166.112; 1292.883;374.05389
 313.05;  993.663;  176.059; 2220.983;817.60388
 313.64;  994.546;  170.333; 1904.856;824.21329
 314.23;  546.375;  159.036;  905.625;387.33944
 314.83;  302.156;  183.457;  437.262;118.69929
 315.42;  229.962;  153.736;  324.042;76.22616
 316.02;  216.175;  157.548;  288.107;58.62747
 316.61;  202.492;  152.189;  258.543;50.30275
 317.20;  203.611;  165.999;  253.209;37.61229
 317.80;  189.162;  160.221;  232.493;28.94054
 318.39;  193.018;  163.795;  233.203;29.22266
 318.98;  215.714;  193.744;  247.328;21.97001
 319.58;  186.823;  169.828;  216.003;16.99502
 320.17;  187.707;  168.575;  213.990;19.13209
 320.76;  186.918;  168.871;  212.286;18.04719
 321.36;  182.254;  169.357;  202.238;12.89737
 321.95;  176.844;  167.621;  195.718; 9.22333
 322.55;  196.623;  186.082;  213.062;10.54138
 323.14;  164.729;  152.739;  181.970;11.99047
 323.73;  167.558;  154.753;  184.904;12.80530
 324.33;  186.246;  176.503;  201.519; 9.74398
 324.92;  178.446;  170.029;  192.560; 8.41713
 325.51;  172.841;  168.343;  187.946; 4.49770
 326.10;  168.523;  162.183;  181.914; 6.34003
 326.70;  180.625;  173.882;  193.516; 6.74258
 327.29;  176.348;  169.970;  187.224; 6.37760
 327.88;  171.053;  165.081;  182.818; 5.97211
 328.48;  184.121;  176.911;  198.026; 7.21026
 329.07;  188.457;  180.658;  199.266; 7.79913
 329.66;  178.768;  170.927;  189.404; 7.84113
 330.26;  181.644;  176.096;  192.723; 5.54791
 330.85;  184.853;  179.929;  195.784; 4.92367
 331.44;  181.531;  175.423;  189.246; 6.10786
 332.04;  180.400;  176.871;  189.683; 3.52936
 332.63;  168.392;  164.646;  174.903; 3.74629
 333.22;  180.590;  176.877;  195.090; 3.71301
 333.81;  198.060;  180.994;  235.574;17.06579
 334.41;  209.377;  180.880;  249.291;28.49660
 335.00;  205.793;  190.775;  222.102;15.01781
 335.59;  178.192;  175.896;  182.714; 2.29558
 336.18;  186.311;  186.918;  190.339;-0.60652
 336.78;  165.412;  165.381;  169.251; 0.03075
 337.37;  171.090;  171.039;  174.332; 0.05097
 337.96;  226.242;  227.172;  229.099;-0.92982
 338.55;  197.118;  198.467;  200.760;-1.34857
 339.15;  184.720;  185.489;  187.809;-0.76897
 339.74;  173.598;  174.451;  176.051;-0.85349
 340.33;  169.990;  171.198;  172.264;-1.20808
 340.92;  183.027;  183.361;  185.726;-0.33405
 341.52;  176.409;  177.029;  179.138;-0.62048
 342.11;  173.385;  174.246;  175.982;-0.86134
 342.70;  160.321;  160.769;  162.731;-0.44702
 343.29;  176.563;  179.040;  180.213;-2.47692
 343.89;  164.471;  164.528;  166.492;-0.05677
 344.48;  178.412;  177.707;  181.187; 0.70523
 345.07;  155.154;  155.616;  158.639;-0.46196
 345.66;  184.977;  184.240;  186.801; 0.73728
 346.25;  168.252;  169.051;  171.893;-0.79858
 346.85;  181.522;  181.558;  184.557;-0.03599
 347.44;  160.494;  160.356;  164.301; 0.13763
 348.03;  169.356;  169.905;  173.428;-0.54893
 348.62;  187.878;  188.520;  191.544;-0.64195
 349.21;  165.165;  165.562;  170.085;-0.39717
 349.81;  177.946;  177.349;  180.710; 0.59656
 350.40;  163.829;  164.108;  168.015;-0.27916
 350.99;  159.957;  159.635;  164.370; 0.32178
 351.58;  170.215;  168.959;  175.213; 1.25628
 352.17;  145.540;  144.645;  150.727; 0.89548
 352.77;  170.341;  167.961;  175.698; 2.37950
 353.36;  177.202;  177.249;  184.777;-0.04707
 353.95;  178.701;  175.374;  183.532; 3.32677
 354.54;  159.319;  156.091;  164.695; 3.22797
 355.13;  176.658;  174.712;  185.178; 1.94635
 355.72;  180.951;  179.625;  189.178; 1.32559
 356.32;  170.540;  168.462;  179.394; 2.07815
 356.91;  189.774;  187.012;  198.581; 2.76165
 357.50;  173.412;  170.027;  181.332; 3.38547
 358.09;  167.574;  164.519;  175.948; 3.05458
 358.68;  172.397;  168.653;  182.453; 3.74364
 359.27;  183.367;  179.216;  193.575; 4.15111
 359.86;  189.184;  185.506;  201.175; 3.67833
 360.46;  162.425;  157.654;  174.085; 4.77051
 361.05;  177.308;  172.518;  190.340; 4.78999
 361.64;  173.483;  167.374;  185.086; 6.10947
 362.23;  179.469;  171.842;  194.651; 7.62733
 362.82;  171.169;  163.839;  192.502; 7.33009
 363.41;  180.700;  168.397;  207.875;12.30332
 364.00;  218.729;  176.951;  353.780;41.77806
 364.59;  596.844;  183.844; 1486.313;412.99988
 365.19; 1183.426;  162.882; 2522.935;1020.54420
 365.78;  936.754;  182.214; 1660.725;754.54021
 366.37;  440.276;  167.548;  731.492;272.72761
 366.96;  288.783;  169.481;  397.552;119.30168
 367.55;  211.435;  181.778;  244.913;29.65714
 368.14;  189.376;  178.387;  214.336;10.98875
 368.73;  196.150;  186.299;  218.072; 9.85125
 369.32;  198.320;  188.947;  217.455; 9.37290
 369.91;  191.674;  182.764;  209.941; 8.90966
 370.50;  200.938;  191.469;  219.302; 9.46903
 371.09;  183.576;  175.202;  202.742; 8.37447
 371.69;  177.555;  169.328;  198.902; 8.22675
 372.28;  173.844;  165.466;  193.164; 8.37763
 372.87;  208.971;  198.819;  229.204;10.15190
 373.46;  176.878;  166.853;  198.627;10.02521
 374.05;  196.777;  186.768;  218.578;10.00907
 374.64;  196.342;  185.885;  220.031;10.45696
 375.23;  187.665;  176.637;  210.680;11.02830
 375.82;  206.165;  195.424;  231.757;10.74085
 376.41;  203.467;  191.792;  227.311;11.67490
 377.00;  202.546;  189.710;  229.443;12.83698
 377.59;  194.784;  181.360;  220.777;13.42415
 378.18;  195.945;  181.502;  222.855;14.44258
 378.77;  194.969;  180.446;  221.661;14.52290
 379.36;  185.361;  171.454;  215.856;13.90734
 379.95;  206.296;  190.633;  236.560;15.66278
 380.54;  200.433;  184.731;  233.047;15.70153
 381.13;  215.143;  198.054;  245.947;17.08856
 381.72;  182.427;  165.850;  217.145;16.57680
 382.31;  215.067;  198.959;  250.810;16.10780
 382.90;  198.589;  181.443;  235.621;17.14617
 383.49;  246.747;  227.234;  281.132;19.51316
 384.08;  188.621;  169.673;  226.846;18.94788
 384.67;  213.983;  196.054;  252.682;17.92912
 385.26;  210.673;  189.966;  250.489;20.70711
 385.85;  194.585;  173.409;  233.966;21.17575
 386.44;  209.197;  187.634;  250.247;21.56306
 387.03;  218.689;  197.421;  264.478;21.26840
 387.62;  184.728;  163.338;  228.198;21.39025
 388.21;  218.903;  196.186;  263.020;22.71718
 388.80;  201.263;  178.007;  246.997;23.25604
 389.39;  205.694;  181.558;  253.348;24.13561
 389.98;  206.341;  181.266;  255.753;25.07533
 390.57;  204.896;  179.164;  255.437;25.73170
 391.16;  213.169;  186.709;  261.714;26.45968
 391.75;  221.582;  196.106;  269.716;25.47648
 392.34;  221.929;  196.263;  270.151;25.66572
 392.93;  217.640;  191.339;  268.909;26.30143
 393.52;  192.345;  166.840;  245.097;25.50453
 394.11;  198.848;  171.515;  250.044;27.33333
 394.70;  237.205;  210.391;  289.266;26.81416
 395.29;  218.255;  191.029;  271.052;27.22583
 395.88;  205.252;  178.836;  257.652;26.41606
 396.47;  222.547;  194.161;  273.788;28.38608
 397.05;  206.850;  178.850;  258.016;28.00011
 397.64;  219.073;  191.695;  272.155;27.37838
 398.23;  211.153;  183.469;  265.215;27.68355
 398.82;  213.632;  185.793;  265.767;27.83855
 399.41;  202.938;  175.624;  255.098;27.31399
 400.00;  198.885;  172.349;  252.393;26.53641
 400.59;  220.274;  193.132;  273.690;27.14241
 401.18;  214.777;  186.235;  269.091;28.54173
 401.77;  209.077;  180.529;  262.585;28.54794
 402.36;  223.018;  194.073;  281.319;28.94504
 402.95;  208.446;  176.865;  273.673;31.58089
 403.53;  248.005;  193.473;  388.007;54.53159
 404.12;  589.889;  179.919; 1465.115;409.97043
 404.71; 1245.740;  177.698; 2583.144;1068.04238
 405.30;  882.054;  158.448; 1466.161;723.60569
 405.89;  297.234;  172.611;  421.434;124.62316
 406.48;  233.925;  194.565;  292.922;39.36034
 407.07;  206.781;  166.267;  287.548;40.51399
 407.66;  265.603;  189.535;  386.657;76.06770
 408.24;  265.885;  190.223;  354.475;75.66205
 408.83;  226.842;  192.720;  276.672;34.12186
 409.42;  190.829;  167.033;  233.595;23.79563
 410.01;  204.850;  182.853;  246.646;21.99798
 410.60;  215.509;  193.582;  254.574;21.92799
 411.19;  184.113;  162.868;  222.268;21.24476
 411.78;  183.628;  164.580;  221.798;19.04814
 412.36;  188.815;  169.760;  225.619;19.05484
 412.95;  196.762;  177.768;  232.970;18.99394
 413.54;  217.459;  200.262;  253.428;17.19721
 414.13;  209.376;  190.969;  245.348;18.40653
 414.72;  192.080;  174.563;  226.540;17.51739
 415.31;  192.850;  175.308;  228.778;17.54194
 415.89;  175.248;  156.787;  208.684;18.46059
 416.48;  192.183;  176.500;  225.226;15.68325
 417.07;  183.268;  167.929;  214.352;15.33998
 417.66;  213.087;  197.499;  243.116;15.58784
 418.25;  197.137;  182.567;  226.683;14.57022
 418.83;  192.682;  178.673;  222.017;14.00851
 419.42;  197.738;  182.859;  226.599;14.87927
 420.01;  200.241;  185.601;  228.959;14.63975
 420.60;  198.511;  183.877;  225.851;14.63421
 421.19;  220.760;  207.381;  246.419;13.37879
 421.77;  175.618;  163.362;  202.087;12.25612
 422.36;  206.032;  192.702;  230.957;13.33048
 422.95;  193.347;  181.905;  218.066;11.44244
 423.54;  211.209;  199.674;  236.024;11.53510
 424.12;  201.948;  191.729;  225.095;10.21944
 424.71;  201.195;  191.024;  224.132;10.17140
 425.30;  207.707;  195.949;  231.290;11.75779
 425.89;  206.018;  194.640;  228.544;11.37803
 426.48;  196.406;  187.742;  220.262; 8.66406
 427.06;  189.472;  180.325;  212.383; 9.14723
 427.65;  204.189;  194.373;  225.779; 9.81559
 428.24;  183.383;  173.882;  202.939; 9.50087
 428.83;  192.525;  182.524;  213.653;10.00143
 429.41;  203.801;  195.650;  224.759; 8.15068
 430.00;  190.992;  182.279;  211.652; 8.71313
 430.59;  225.210;  215.774;  246.183; 9.43644
 431.17;  208.451;  197.939;  229.574;10.51203
 431.76;  210.154;  198.877;  230.916;11.27668
 432.35;  219.639;  207.590;  241.614;12.04866
 432.94;  216.433;  203.248;  244.729;13.18474
 433.52;  219.192;  200.767;  258.083;18.42512
 434.11;  236.802;  207.894;  298.172;28.90765
 434.70;  274.917;  198.296;  485.671;76.62101
 435.29; 1026.282;  212.896; 2805.055;813.38580
 435.87; 2369.272;  206.719; 5150.592;2162.55315
 436.46; 1597.269;  210.740; 2722.762;1386.52939
 437.05;  370.034;  183.603;  540.545;186.43140
 437.63;  231.450;  201.332;  274.666;30.11781
 438.22;  222.729;  203.832;  248.964;18.89741
 438.81;  232.051;  216.074;  253.576;15.97696
 439.39;  200.361;  190.341;  219.764;10.01983
 439.98;  215.169;  206.514;  232.521; 8.65480
 440.57;  208.642;  201.749;  225.617; 6.89270
 441.15;  203.066;  197.083;  219.055; 5.98303
 441.74;  208.496;  203.234;  220.966; 5.26190
 442.33;  215.113;  210.182;  227.628; 4.93096
 442.91;  209.901;  204.665;  222.203; 5.23592
 443.50;  200.431;  195.081;  212.909; 5.34991
 444.09;  191.163;  187.318;  202.260; 3.84524
 444.67;  224.771;  220.137;  236.318; 4.63430
 445.26;  203.805;  200.047;  213.821; 3.75845
 445.85;  218.926;  213.759;  229.093; 5.16691
 446.43;  201.583;  197.378;  213.253; 4.20466
 447.02;  202.808;  199.195;  213.971; 3.61288
 447.61;  183.337;  180.285;  193.601; 3.05203
 448.19;  207.274;  205.617;  218.236; 1.65653
 448.78;  201.144;  196.885;  208.027; 4.25863
 449.36;  202.063;  200.522;  212.489; 1.54103
 449.95;  196.224;  194.136;  205.296; 2.08847
 450.54;  194.414;  190.992;  202.068; 3.42223
 451.12;  215.314;  213.227;  224.440; 2.08692
 451.71;  180.209;  178.246;  190.035; 1.96311
 452.30;  206.844;  203.933;  214.755; 2.91106
 452.88;  195.085;  193.927;  204.263; 1.15835
 453.47;  179.618;  178.301;  188.234; 1.31730
 454.05;  189.778;  187.381;  198.324; 2.39716
 454.64;  200.168;  198.638;  209.186; 1.53015
 455.22;  214.870;  213.190;  222.695; 1.67961
 455.81;  179.789;  177.234;  186.806; 2.55472
 456.40;  215.507;  213.844;  221.415; 1.66273
 456.98;  189.361;  187.286;  196.557; 2.07449
 457.57;  207.340;  205.449;  214.096; 1.89112
 458.15;  213.665;  212.635;  220.194; 1.03038
 458.74;  200.033;  197.409;  205.667; 2.62391
 459.33;  204.884;  203.185;  211.567; 1.69888
 459.91;  205.592;  204.309;  209.606; 1.28331
 460.50;  204.152;  201.867;  210.124; 2.28537
 461.08;  195.719;  194.525;  201.549; 1.19406
 461.67;  198.080;  197.717;  203.915; 0.36254
 462.25;  202.904;  202.160;  208.184; 0.74389
 462.84;  173.542;  171.143;  177.443; 2.39882
 463.42;  190.471;  190.005;  197.335; 0.46571
 464.01;  193.187;  192.089;  200.154; 1.09784
 464.59;  203.159;  204.720;  209.773;-1.56080
 465.18;  191.710;  190.661;  196.631; 1.04932
 465.76;  197.097;  195.978;  202.098; 1.11888
 466.35;  195.734;  195.076;  202.134; 0.65761
 466.94;  206.633;  205.588;  211.128; 1.04516
 467.52;  216.024;  215.546;  220.402; 0.47751
 468.11;  181.245;  181.263;  185.451;-0.01803
 468.69;  174.780;  175.283;  178.777;-0.50341
 469.28;  165.410;  165.781;  169.570;-0.37058
 469.86;  201.570;  201.956;  204.795;-0.38589
 470.45;  195.220;  195.976;  198.769;-0.75582
 471.03;  176.139;  176.987;  179.928;-0.84839
 471.62;  187.955;  187.494;  189.847; 0.46073
 472.20;  190.369;  191.403;  194.726;-1.03357
 472.79;  226.679;  226.987;  228.835;-0.30849
 473.37;  189.605;  189.814;  192.908;-0.20911
 473.95;  189.213;  189.323;  192.703;-0.10968
 474.54;  148.414;  149.139;  152.162;-0.72454
 475.12;  215.140;  215.707;  218.210;-0.56746
 475.71;  196.617;  196.860;  199.441;-0.24334
 476.29;  200.922;  200.246;  203.200; 0.67644
 476.88;  175.600;  176.462;  178.540;-0.86251
 477.46;  176.810;  177.365;  179.356;-0.55544
 478.05;  183.818;  185.347;  186.478;-1.52883
 478.63;  187.495;  186.990;  191.034; 0.50489
 479.22;  168.673;  169.617;  170.278;-0.94383
 479.80;  193.081;  193.848;  195.363;-0.76716
 480.38;  188.385;  188.725;  191.085;-0.34038
 480.97;  172.990;  173.631;  174.897;-0.64054
 481.55;  183.306;  184.528;  186.205;-1.22180
 482.14;  206.122;  206.846;  207.401;-0.72369
 482.72;  180.335;  180.594;  182.124;-0.25857
 483.31;  175.400;  178.196;  177.897;-2.79559
 483.89;  180.342;  182.203;  182.403;-1.86094
 484.47;  180.919;  181.411;  182.354;-0.49159
 485.06;  171.601;  171.398;  172.672; 0.20279
 485.64;  194.339;  195.727;  195.664;-1.38845
 486.23;  199.660;  200.730;  200.398;-1.06967
 486.81;  193.293;  193.913;  194.241;-0.62021
 487.39;  162.758;  162.998;  164.354;-0.24024
 487.98;  175.307;  176.232;  176.507;-0.92504
 488.56;  204.620;  205.172;  205.349;-0.55170
 489.15;  174.395;  175.879;  176.203;-1.48392
 489.73;  177.057;  179.611;  179.606;-2.55391
 490.31;  177.283;  177.484;  179.772;-0.20112
 490.90;  177.102;  178.035;  182.159;-0.93272
 491.48;  186.075;  183.404;  192.437; 2.67111
 492.06;  198.218;  196.254;  201.679; 1.96373
 492.65;  165.549;  167.123;  168.469;-1.57426
 493.23;  154.468;  155.512;  155.351;-1.04436
 493.82;  188.075;  190.279;  188.929;-2.20436
 494.40;  154.545;  156.063;  154.592;-1.51797
 494.98;  172.093;  173.980;  173.304;-1.88660
 495.57;  154.061;  155.023;  154.804;-0.96156
 496.15;  149.681;  153.475;  152.224;-3.79438
 496.73;  164.737;  166.732;  165.567;-1.99505
 497.32;  186.331;  188.806;  185.987;-2.47529
 497.90;  183.777;  185.243;  184.261;-1.46594
 498.48;  162.166;  163.264;  161.229;-1.09824
 499.07;  165.880;  168.933;  167.574;-3.05265
 499.65;  184.468;  187.241;  185.883;-2.77293
 500.23;  149.865;  152.838;  150.126;-2.97337
 500.82;  162.465;  164.071;  163.825;-1.60580
 501.40;  164.733;  168.176;  166.053;-3.44257
 501.98;  178.529;  180.379;  178.435;-1.85003
 502.56;  191.200;  193.014;  192.690;-1.81388
 503.15;  192.061;  193.763;  191.639;-1.70192
 503.73;  175.334;  176.916;  175.410;-1.58160
 504.31;  178.457;  179.871;  178.659;-1.41401
 504.90;  184.930;  187.818;  186.738;-2.88791
 505.48;  197.695;  201.702;  199.199;-4.00715
 506.06;  184.109;  186.348;  184.710;-2.23925
 506.64;  170.306;  172.437;  170.026;-2.13101
 507.23;  175.649;  178.225;  176.401;-2.57565
 507.81;  187.153;  189.522;  188.977;-2.36909
 508.39;  176.229;  177.726;  176.174;-1.49739
 508.97;  184.504;  185.371;  185.047;-0.86692
 509.56;  193.749;  195.905;  194.375;-2.15591
 510.14;  161.171;  163.341;  161.241;-2.17018
 510.72;  176.826;  179.200;  177.478;-2.37450
 511.30;  186.845;  189.355;  186.041;-2.51020
 511.89;  184.803;  187.260;  185.565;-2.45665
 512.47;  180.565;  182.290;  181.031;-1.72489
 513.05;  176.384;  178.056;  177.585;-1.67201
 513.63;  177.587;  179.262;  177.868;-1.67467
 514.22;  188.811;  190.671;  189.266;-1.85997
 514.80;  187.231;  189.987;  188.139;-2.75596
 515.38;  178.428;  180.929;  179.039;-2.50058
 515.96;  199.736;  201.970;  200.259;-2.23445
 516.55;  172.647;  174.993;  172.391;-2.34637
 517.13;  183.193;  185.281;  186.021;-2.08766
 517.71;  167.900;  170.696;  169.247;-2.79640
 518.29;  169.754;  170.994;  170.914;-1.24051
 518.87;  182.015;  182.773;  182.674;-0.75807
 519.46;  173.617;  176.196;  174.753;-2.57925
 520.04;  176.855;  177.299;  177.625;-0.44410
 520.62;  167.443;  168.520;  166.467;-1.07686
 521.20;  162.182;  165.834;  162.686;-3.65172
 521.78;  180.044;  181.708;  180.553;-1.66364
 522.36;  174.838;  177.525;  175.982;-2.68750
 522.95;  174.651;  177.350;  177.197;-2.69922
 523.53;  163.915;  165.613;  164.834;-1.69806
 524.11;  176.016;  176.984;  176.760;-0.96823
 524.69;  169.733;  171.661;  170.408;-1.92835
 525.27;  172.777;  173.930;  173.546;-1.15328
 525.85;  182.966;  184.072;  182.985;-1.10558
 526.44;  182.384;  184.689;  182.487;-2.30525
 527.02;  191.228;  192.458;  192.145;-1.23037
 527.60;  185.242;  186.713;  184.817;-1.47070
 528.18;  167.025;  167.457;  168.352;-0.43182
 528.76;  197.578;  196.792;  197.754; 0.78633
 529.34;  181.542;  183.260;  182.904;-1.71835
 529.92;  198.359;  200.420;  199.070;-2.06052
 530.51;  187.515;  189.152;  189.082;-1.63668
 531.09;  180.354;  180.154;  180.559; 0.19951
 531.67;  174.788;  176.171;  176.286;-1.38300
 532.25;  196.419;  197.521;  198.863;-1.10212
 532.83;  198.148;  197.957;  200.968; 0.19126
 533.41;  172.587;  173.583;  175.342;-0.99641
 533.99;  197.611;  198.349;  200.241;-0.73797
 534.57;  215.810;  217.315;  219.337;-1.50540
 535.15;  178.507;  179.558;  181.714;-1.05100
 535.74;  173.272;  173.355;  177.698;-0.08261
 536.32;  178.965;  180.199;  183.533;-1.23418
 536.90;  170.813;  171.801;  173.158;-0.98773
 537.48;  184.722;  186.379;  186.764;-1.65660
 538.06;  203.258;  204.270;  204.852;-1.01232
 538.64;  188.619;  188.959;  193.302;-0.33972
 539.22;  180.982;  181.431;  184.206;-0.44943
 539.80;  186.486;  187.023;  190.142;-0.53718
 540.38;  201.865;  202.015;  205.750;-0.14969
 540.96;  171.702;  172.174;  176.155;-0.47227
 541.54;  178.199;  177.715;  183.672; 0.48408
 542.12;  222.531;  221.327;  228.946; 1.20357
 542.70;  169.920;  167.198;  178.319; 2.72170
 543.28;  190.731;  185.638;  202.682; 5.09327
 543.86;  187.300;  179.558;  204.103; 7.74240
 544.44;  245.433;  229.764;  278.849;15.66865
 545.02;  276.855;  197.806;  518.343;79.04906
 545.61; 1411.758;  187.133; 3429.565;1224.62496
 546.19; 2422.223;  191.494; 4874.079;2230.72895
 546.77; 1071.260;  184.926; 1764.281;886.33377
 547.35;  302.637;  216.969;  398.729;85.66828
 547.93;  214.444;  192.583;  238.837;21.86096
 548.51;  205.824;  195.648;  217.970;10.17643
 549.09;  210.840;  204.032;  218.477; 6.80804
 549.67;  205.208;  203.150;  211.654; 2.05795
 550.25;  186.327;  185.505;  191.700; 0.82179
 550.83;  209.670;  208.767;  213.583; 0.90328
 551.41;  196.391;  195.331;  198.861; 1.05968
 551.99;  194.262;  194.669;  196.932;-0.40656
 552.57;  194.674;  194.889;  197.915;-0.21471
 553.15;  212.759;  213.946;  214.893;-1.18694
 553.73;  172.338;  174.061;  174.930;-1.72291
 554.30;  204.872;  205.492;  206.191;-0.62020
 554.88;  188.696;  190.590;  191.836;-1.89443
 555.46;  198.365;  199.623;  201.328;-1.25844
 556.04;  192.057;  193.834;  193.265;-1.77734
 556.62;  214.325;  215.177;  215.762;-0.85218
 557.20;  176.826;  180.119;  178.369;-3.29343
 557.78;  198.923;  201.147;  201.259;-2.22438
 558.36;  212.783;  214.341;  213.174;-1.55810
 558.94;  212.123;  212.844;  212.481;-0.72060
 559.52;  184.020;  186.182;  185.274;-2.16228
 560.10;  199.998;  201.499;  200.758;-1.50064
 560.68;  198.517;  199.206;  200.698;-0.68910
 561.26;  219.969;  221.239;  221.469;-1.26958
 561.84;  178.836;  180.470;  179.169;-1.63450
 562.42;  192.506;  194.239;  194.921;-1.73256
 563.00;  201.040;  201.398;  200.683;-0.35800
 563.58;  195.686;  197.781;  197.730;-2.09469
 564.15;  194.442;  195.206;  196.425;-0.76441
 564.73;  201.376;  202.543;  203.546;-1.16668
 565.31;  213.310;  213.837;  214.694;-0.52734
 565.89;  179.125;  179.559;  180.168;-0.43442
 566.47;  189.080;  189.387;  190.334;-0.30731
 567.05;  209.172;  211.210;  209.801;-2.03796
 567.63;  193.129;  194.227;  193.745;-1.09785
 568.21;  186.453;  186.918;  188.234;-0.46539
 568.79;  210.517;  213.040;  211.859;-2.52256
 569.36;  234.934;  236.037;  236.033;-1.10301
 569.94;  187.928;  189.897;  190.086;-1.96932
 570.52;  208.367;  209.414;  208.876;-1.04712
 571.10;  155.647;  157.228;  157.098;-1.58075
 571.68;  198.529;  199.169;  199.348;-0.64026
 572.26;  204.009;  205.252;  206.805;-1.24340
 572.84;  209.496;  211.646;  213.302;-2.15005
 573.41;  188.270;  188.731;  191.510;-0.46092
 573.99;  230.780;  232.272;  234.484;-1.49167
 574.57;  194.225;  194.210;  198.005; 0.01532
 575.15;  227.877;  226.994;  233.762; 0.88313
 575.73;  216.794;  211.061;  238.659; 5.73341
 576.31;  329.092;  207.503;  581.907;121.58865
 576.88;  550.377;  183.441;  993.686;366.93588
 577.46;  426.757;  191.931;  632.249;234.82614
 578.04;  229.348;  186.325;  314.338;43.02305
 578.62;  439.757;  185.047;  838.586;254.71043
 579.20;  584.000;  190.908; 1006.280;393.09193
 579.78;  326.925;  199.021;  438.584;127.90376
 580.35;  210.323;  198.263;  224.094;12.06046
 580.93;  189.164;  186.738;  193.932; 2.42570
 581.51;  204.057;  201.746;  203.406; 2.31126
 582.09;  179.780;  180.813;  181.770;-1.03324
 582.67;  180.995;  182.177;  181.880;-1.18180
 583.24;  184.428;  184.733;  185.282;-0.30457
 583.82;  187.817;  189.105;  188.714;-1.28789
 584.40;  184.831;  186.757;  186.158;-1.92634
 584.98;  182.624;  184.186;  183.929;-1.56183
 585.55;  195.149;  195.976;  197.391;-0.82736
 586.13;  169.367;  171.705;  170.347;-2.33766
 586.71;  192.379;  194.074;  193.534;-1.69520
 587.29;  185.281;  188.101;  185.393;-2.81953
 587.86;  188.499;  189.231;  189.128;-0.73165
 588.44;  150.610;  152.704;  151.278;-2.09423
 589.02;  202.094;  204.099;  202.846;-2.00538
 589.60;  180.540;  182.229;  180.686;-1.68921
 590.17;  192.705;  194.163;  192.297;-1.45702
 590.75;  170.064;  171.063;  169.301;-0.99878
 591.33;  169.217;  171.421;  171.119;-2.20365
 591.91;  179.515;  180.727;  180.134;-1.21212
 592.48;  173.275;  176.081;  174.727;-2.80557
 593.06;  191.333;  193.062;  191.277;-1.72889
 593.64;  185.781;  188.266;  186.123;-2.48491
 594.21;  172.300;  173.822;  171.966;-1.52196
 594.79;  184.549;  186.194;  184.253;-1.64539
 595.37;  186.198;  187.110;  186.634;-0.91176
 595.95;  169.349;  171.408;  169.210;-2.05919
 596.52;  174.598;  178.059;  174.385;-3.46064
 597.10;  180.704;  182.221;  181.543;-1.51653
 597.68;  166.992;  168.466;  167.048;-1.47436
 598.25;  191.586;  193.124;  191.102;-1.53764
 598.83;  167.134;  170.075;  168.230;-2.94074
 599.41;  183.033;  183.925;  181.930;-0.89164
 599.98;  207.666;  209.299;  207.470;-1.63336
 600.56;  195.727;  198.222;  196.510;-2.49476
 601.14;  181.114;  183.432;  182.296;-2.31759
 601.71;  185.248;  187.701;  185.581;-2.45298
 602.29;  171.120;  173.090;  171.919;-1.97047
 602.87;  195.144;  198.007;  196.942;-2.86278
 603.44;  189.885;  190.942;  189.970;-1.05744
 604.02;  182.243;  183.873;  183.106;-1.62990
 604.60;  202.813;  205.136;  201.173;-2.32254
 605.17;  208.648;  210.883;  208.291;-2.23542
 605.75;  198.013;  200.919;  198.867;-2.90552
 606.33;  189.716;  192.459;  190.642;-2.74341
 606.90;  210.723;  213.122;  211.394;-2.39925
 607.48;  199.133;  201.531;  199.325;-2.39799
 608.05;  178.528;  180.964;  178.524;-2.43575
 608.63;  184.972;  188.721;  186.371;-3.74868
 609.21;  176.923;  179.004;  176.448;-2.08074
 609.78;  204.017;  206.910;  205.182;-2.89349
 610.36;  192.461;  195.156;  191.741;-2.69487
 610.93;  197.090;  199.919;  196.171;-2.82875
 611.51;  178.688;  181.818;  179.469;-3.12994
 612.09;  208.303;  209.802;  207.395;-1.49858
 612.66;  188.992;  191.850;  190.107;-2.85784
 613.24;  203.606;  206.140;  203.003;-2.53448
 613.81;  207.530;  209.069;  206.200;-1.53881
 614.39;  203.493;  205.430;  203.399;-1.93734
 614.96;  218.458;  221.164;  217.412;-2.70629
 615.54;  200.892;  204.199;  201.843;-3.30698
 616.12;  211.790;  213.779;  209.965;-1.98929
 616.69;  168.750;  170.837;  169.197;-2.08709
 617.27;  196.697;  198.877;  196.719;-2.17956
 617.84;  179.003;  181.457;  178.833;-2.45392
 618.42;  212.819;  216.282;  211.207;-3.46273
 618.99;  197.152;  199.422;  195.870;-2.26984
 619.57;  215.920;  217.872;  214.600;-1.95217
 620.14;  204.517;  206.661;  204.552;-2.14436
 620.72;  184.042;  185.908;  183.325;-1.86569
 621.30;  206.783;  209.281;  206.934;-2.49825
 621.87;  214.125;  218.241;  212.652;-4.11578
 622.45;  204.684;  207.620;  204.167;-2.93629
 623.02;  177.268;  179.695;  178.127;-2.42678
 623.60;  188.837;  191.127;  189.356;-2.28981
 624.17;  196.591;  198.470;  194.886;-1.87918
 624.75;  205.399;  207.818;  205.327;-2.41899
 625.32;  192.686;  195.868;  192.308;-3.18215
 625.90;  198.301;  201.307;  198.133;-3.00575
 626.47;  210.468;  213.203;  210.485;-2.73488
 627.05;  180.599;  184.182;  179.759;-3.58349
 627.62;  197.622;  201.442;  196.459;-3.81995
 628.20;  219.198;  222.275;  218.249;-3.07714
 628.77;  212.946;  214.734;  211.877;-1.78833
 629.34;  232.287;  234.869;  231.819;-2.58180
 629.92;  186.883;  190.410;  187.490;-3.52670
 630.49;  213.509;  215.566;  213.266;-2.05705
 631.07;  189.453;  192.406;  188.294;-2.95256
 631.64;  188.907;  191.284;  187.824;-2.37749
 632.22;  231.042;  234.084;  230.912;-3.04165
 632.79;  206.966;  208.841;  206.039;-1.87540
 633.37;  213.574;  216.164;  212.526;-2.58991
 633.94;  207.832;  210.820;  206.488;-2.98807
 634.52;  202.444;  203.733;  199.758;-1.28861
 635.09;  216.013;  218.961;  215.253;-2.94798
 635.66;  181.711;  184.069;  181.904;-2.35759
 636.24;  196.367;  198.740;  196.282;-2.37298
 636.81;  236.878;  239.193;  236.037;-2.31528
 637.39;  220.161;  222.206;  219.425;-2.04545
 637.96;  215.980;  218.635;  214.710;-2.65546
 638.54;  215.629;  217.872;  214.657;-2.24276
 639.11;  191.830;  193.753;  192.193;-1.92287
 639.68;  218.128;  221.833;  218.132;-3.70521
 640.26;  201.647;  204.087;  200.830;-2.43976
 640.83;  202.667;  206.459;  202.731;-3.79178
 641.41;  197.290;  198.538;  195.288;-1.24780
 641.98;  202.026;  204.173;  202.609;-2.14682
 642.55;  182.296;  184.582;  181.128;-2.28584
 643.13;  198.797;  201.280;  198.066;-2.48286
 643.70;  217.892;  221.121;  217.215;-3.22888
 644.27;  204.431;  206.951;  203.618;-2.51990
 644.85;  195.879;  196.053;  194.159;-0.17392
 645.42;  201.944;  203.918;  199.911;-1.97394
 645.99;  192.286;  193.777;  190.061;-1.49096
 646.57;  197.270;  199.365;  196.463;-2.09498
 647.14;  202.389;  204.351;  201.200;-1.96200
 647.72;  180.910;  182.960;  180.416;-2.05003
 648.29;  193.278;  195.715;  192.608;-2.43705
 648.86;  217.876;  219.854;  216.710;-1.97807
 649.44;  184.148;  187.366;  183.041;-3.21809
 650.01;  194.198;  196.697;  193.457;-2.49911
 650.58;  203.543;  206.635;  202.430;-3.09213
 651.16;  202.838;  203.225;  200.440;-0.38715
 651.73;  189.278;  192.993;  187.736;-3.71517
 652.30;  206.652;  208.247;  207.431;-1.59519
 652.87;  191.771;  194.664;  192.315;-2.89321
 653.45;  213.969;  216.135;  212.966;-2.16623
 654.02;  187.234;  191.063;  187.624;-3.82925
 654.59;  198.164;  200.659;  196.423;-2.49528
 655.17;  202.664;  205.534;  201.261;-2.87030
 655.74;  186.254;  190.469;  184.871;-4.21532
 656.31;  199.403;  201.761;  197.131;-2.35834
 656.89;  200.998;  202.652;  199.572;-1.65436
 657.46;  206.241;  209.284;  205.138;-3.04338
 658.03;  212.643;  215.188;  212.823;-2.54540
 658.60;  195.178;  198.057;  194.048;-2.87942
 659.18;  209.316;  212.581;  210.082;-3.26544
 659.75;  194.972;  197.034;  194.466;-2.06246
 660.32;  213.076;  215.487;  212.587;-2.41148
 660.89;  193.706;  196.388;  193.109;-2.68250
 661.47;  213.847;  215.584;  212.436;-1.73653
 662.04;  212.545;  215.996;  212.492;-3.45055
 662.61;  194.599;  198.714;  195.400;-4.11457
 663.18;  202.280;  205.163;  202.315;-2.88259
 663.76;  183.329;  185.763;  181.848;-2.43361
 664.33;  209.405;  211.416;  208.590;-2.01063
 664.90;  203.688;  205.960;  203.257;-2.27165
 665.47;  199.176;  200.663;  197.715;-1.48667
 666.05;  190.324;  192.534;  190.679;-2.20969
 666.62;  225.911;  227.500;  225.637;-1.58871
 667.19;  191.726;  194.157;  192.394;-2.43073
 667.76;  186.988;  187.471;  189.455;-0.48275
 668.33;  189.699;  191.824;  191.776;-2.12478
 668.91;  181.756;  184.050;  180.984;-2.29380
 669.48;  195.389;  198.330;  195.022;-2.94082
 670.05;  183.278;  185.837;  181.436;-2.55884
 670.62;  202.449;  204.091;  200.111;-1.64186
 671.19;  199.797;  201.615;  199.468;-1.81788
 671.76;  206.812;  209.083;  204.944;-2.27090
 672.34;  188.400;  190.858;  187.849;-2.45792
 672.91;  195.967;  199.040;  196.127;-3.07294
 673.48;  187.627;  189.507;  188.041;-1.87996
 674.05;  211.206;  213.379;  210.493;-2.17298
 674.62;  208.406;  210.870;  207.026;-2.46400
 675.19;  199.845;  202.024;  199.583;-2.17903
 675.77;  203.857;  205.992;  203.236;-2.13505
 676.34;  176.692;  180.600;  176.251;-3.90807
 676.91;  192.960;  196.357;  192.447;-3.39709
 677.48;  196.796;  199.204;  196.000;-2.40811
 678.05;  194.139;  196.463;  194.424;-2.32413
 678.62;  206.397;  209.037;  206.241;-2.64015
 679.19;  198.933;  201.859;  199.488;-2.92617
 679.77;  192.408;  194.613;  191.219;-2.20519
 680.34;  160.694;  162.436;  160.329;-1.74221
 680.91;  190.980;  192.401;  189.018;-1.42123
 681.48;  192.812;  196.198;  192.089;-3.38625
 682.05;  198.707;  200.788;  198.306;-2.08128
 682.62;  169.591;  172.432;  167.647;-2.84130
 683.19;  187.025;  190.794;  187.455;-3.76932
 683.76;  196.530;  199.868;  195.830;-3.33834
 684.33;  200.106;  202.143;  199.173;-2.03736
 684.90;  178.417;  180.460;  176.952;-2.04338
 685.48;  180.190;  183.164;  180.005;-2.97440
 686.05;  176.875;  180.057;  177.615;-3.18242
 686.62;  195.862;  198.586;  197.183;-2.72444
 687.19;  177.595;  179.581;  176.679;-1.98646
 687.76;  187.635;  190.217;  187.707;-2.58248
 688.33;  190.654;  192.783;  190.216;-2.12950
 688.90;  188.391;  191.337;  187.084;-2.94552
 689.47;  150.385;  152.809;  148.484;-2.42355
 690.04;  176.787;  177.694;  177.908;-0.90657
 690.61;  187.583;  185.839;  191.835; 1.74441
 691.18;  169.931;  170.278;  172.036;-0.34661
 691.75;  209.399;  212.459;  209.598;-3.05963
 692.32;  190.793;  194.106;  191.508;-3.31265
 692.89;  209.783;  211.253;  209.013;-1.46967
 693.46;  193.049;  194.866;  194.434;-1.81669
 694.03;  186.182;  188.025;  185.955;-1.84271
 694.60;  196.531;  199.672;  198.362;-3.14073
 695.17;  191.743;  191.577;  198.056; 0.16625
 695.74;  205.167;  180.134;  295.952;25.03323
 696.31;  292.989;  188.224;  526.357;104.76520
 696.88;  277.857;  198.699;  436.680;79.15818
 697.45;  189.776;  181.178;  217.769; 8.59816
 698.02;  166.386;  167.148;  171.529;-0.76186
 698.59;  166.903;  169.870;  171.783;-2.96688
 699.16;  174.251;  174.556;  173.378;-0.30490
 699.73;  185.239;  188.459;  185.243;-3.21992
 700.30;  173.946;  176.728;  173.389;-2.78194
 700.87;  191.844;  195.343;  192.910;-3.49896
 701.44;  191.136;  193.545;  190.847;-2.40898
 702.01;  185.894;  187.919;  185.005;-2.02500
 702.58;  207.237;  209.369;  206.841;-2.13102
 703.15;  173.633;  174.951;  172.191;-1.31805
 703.72;  193.781;  195.526;  192.738;-1.74507
 704.29;  167.621;  169.140;  167.346;-1.51909
 704.86;  198.903;  201.306;  199.260;-2.40311
 705.43;  189.357;  193.210;  191.919;-3.85313
 706.00;  195.639;  188.952;  222.417; 6.68685
 706.57;  206.072;  182.400;  262.230;23.67183
 707.14;  191.365;  177.202;  221.456;14.16281
 707.70;  215.157;  214.450;  218.764; 0.70679
 708.27;  179.176;  182.808;  179.997;-3.63223
 708.84;  178.985;  181.019;  178.009;-2.03425
 709.41;  160.139;  162.687;  159.808;-2.54827
 709.98;  205.072;  207.885;  204.521;-2.81330
 710.55;  180.942;  183.079;  181.279;-2.13732
 711.12;  199.995;  202.966;  198.254;-2.97134
 711.69;  195.736;  197.533;  194.719;-1.79736
 712.26;  194.802;  197.826;  194.505;-3.02438
 712.83;  212.140;  212.983;  210.775;-0.84340
 713.39;  196.956;  198.778;  195.453;-1.82242
 713.96;  208.614;  210.219;  212.738;-1.60544
 714.53;  197.637;  196.000;  206.613; 1.63654
 715.10;  196.882;  196.366;  202.143; 0.51552
 715.67;  174.895;  177.510;  175.208;-2.61550
 716.24;  194.321;  197.324;  193.437;-3.00252
 716.81;  211.158;  215.543;  211.046;-4.38455
 717.37;  196.063;  198.613;  195.090;-2.54957
 717.94;  202.167;  204.726;  202.676;-2.55859
 718.51;  203.603;  206.366;  203.290;-2.76261
 719.08;  186.076;  189.358;  185.101;-3.28163
 719.65;  212.817;  215.498;  211.135;-2.68065
 720.22;  206.687;  209.388;  206.097;-2.70067
 720.78;  200.853;  202.904;  198.790;-2.05069
 721.35;  186.409;  189.827;  186.655;-3.41771
 721.92;  214.667;  216.293;  214.834;-1.62573
 722.49;  201.685;  205.337;  202.874;-3.65175
 723.06;  198.786;  201.142;  198.919;-2.35577
 723.63;  169.379;  171.743;  168.342;-2.36379
 724.19;  211.569;  214.440;  210.839;-2.87082
 724.76;  188.979;  191.543;  189.063;-2.56384
 725.33;  198.766;  201.965;  199.054;-3.19886
 725.90;  219.451;  220.459;  219.058;-1.00788
 726.46;  206.791;  202.217;  233.585; 4.57410
 727.03;  247.574;  220.235;  315.146;27.33908
 727.60;  183.237;  163.342;  231.534;19.89506
 728.17;  206.716;  205.397;  215.136; 1.31904
 728.74;  209.061;  211.747;  209.799;-2.68598
 729.30;  192.811;  194.958;  191.518;-2.14700
 729.87;  192.545;  193.779;  192.096;-1.23302
 730.44;  215.990;  218.921;  216.598;-2.93104
 731.01;  208.025;  210.214;  208.547;-2.18907
 731.57;  189.833;  192.814;  190.066;-2.98109
 732.14;  186.566;  190.337;  186.899;-3.77111
 732.71;  190.694;  192.707;  189.752;-2.01313
 733.28;  227.099;  229.421;  228.133;-2.32215
 733.84;  186.462;  188.180;  185.858;-1.71817
 734.41;  184.864;  188.004;  184.891;-3.14019
 734.98;  207.812;  209.380;  207.761;-1.56821
 735.54;  222.637;  224.732;  221.853;-2.09523
 736.11;  190.622;  193.223;  191.575;-2.60125
 736.68;  182.648;  185.566;  186.264;-2.91827
 737.25;  198.217;  196.194;  210.177; 2.02271
 737.81;  237.115;  206.607;  317.032;30.50768
 738.38;  254.116;  201.944;  364.691;52.17166
 738.95;  237.024;  218.449;  282.287;18.57464
 739.51;  211.908;  211.819;  217.624; 0.08862
 740.08;  205.512;  206.974;  207.208;-1.46240
 740.65;  187.457;  190.451;  188.889;-2.99442
 741.21;  204.693;  205.345;  203.778;-0.65244
 741.78;  208.008;  209.359;  208.168;-1.35146
 742.35;  203.601;  205.910;  203.225;-2.30948
 742.91;  218.550;  221.504;  219.878;-2.95450
 743.48;  203.647;  204.741;  203.324;-1.09352
 744.05;  196.285;  199.941;  196.786;-3.65554
 744.61;  203.516;  206.230;  204.593;-2.71357
 745.18;  186.303;  190.159;  187.125;-3.85559
 745.75;  200.426;  203.185;  201.497;-2.75861
 746.31;  228.964;  230.991;  230.891;-2.02663
 746.88;  198.102;  200.707;  200.522;-2.60465
 747.44;  200.647;  201.297;  201.675;-0.64967
 748.01;  228.589;  230.554;  231.329;-1.96469
 748.58;  207.616;  209.499;  213.293;-1.88271
 749.14;  203.750;  199.610;  226.526; 4.14027
 749.71;  281.864;  198.910;  451.231;82.95425
 750.28;  385.157;  205.722;  683.607;179.43523
 750.84;  326.678;  205.812;  549.218;120.86621
 751.41;  260.445;  193.709;  400.206;66.73618
 751.97;  230.461;  204.210;  287.792;26.25116
 752.54;  199.398;  198.148;  213.887; 1.25014
 753.11;  192.575;  194.676;  198.839;-2.10088
 753.67;  203.505;  205.044;  204.969;-1.53890
 754.24;  194.424;  197.777;  196.031;-3.35292
 754.80;  220.466;  223.433;  221.209;-2.96694
 755.37;  178.539;  181.025;  180.823;-2.48596
 755.93;  212.589;  215.711;  215.748;-3.12198
 756.50;  204.404;  206.490;  204.941;-2.08600
 757.07;  209.260;  211.860;  211.182;-2.59902
 757.63;  182.633;  184.709;  183.805;-2.07604
 758.20;  185.674;  189.259;  187.333;-3.58507
 758.76;  193.115;  197.024;  194.976;-3.90909
 759.33;  166.974;  167.743;  168.252;-0.76911
 759.89;  194.008;  194.521;  196.370;-0.51313
 760.46;  195.982;  198.034;  198.611;-2.05215
 761.02;  209.007;  210.179;  212.126;-1.17217
 761.59;  191.144;  192.068;  198.304;-0.92419
 762.15;  214.914;  208.611;  247.196; 6.30279
 762.72;  308.630;  193.498;  649.960;115.13177
 763.28;  506.017;  183.209; 1239.594;322.80775
 763.85;  412.638;  198.448;  891.355;214.18973
 764.41;  231.567;  202.891;  332.429;28.67571
 764.98;  209.991;  208.257;  229.754; 1.73369
 765.54;  207.373;  205.600;  213.852; 1.77266
 766.11;  199.659;  201.997;  202.867;-2.33836
 766.67;  176.229;  177.836;  178.359;-1.60738
 767.24;  202.990;  204.382;  202.687;-1.39240
 767.80;  190.419;  192.250;  191.715;-1.83142
 768.37;  187.852;  190.143;  189.443;-2.29144
 768.93;  186.379;  188.904;  189.093;-2.52546
 769.50;  197.498;  199.529;  198.465;-2.03148
 770.06;  188.030;  189.196;  190.397;-1.16650
 770.63;  194.916;  196.502;  199.082;-1.58552
 771.19;  198.635;  193.654;  227.151; 4.98146
 771.75;  262.114;  180.382;  467.412;81.73244
 772.32;  338.697;  183.304;  655.670;155.39341
 772.88;  270.500;  199.042;  430.088;71.45839
 773.45;  196.582;  190.442;  224.071; 6.14037
 774.01;  192.891;  194.143;  198.828;-1.25165
 774.58;  188.515;  191.283;  194.013;-2.76767
 775.14;  211.102;  211.771;  209.763;-0.66869
 775.70;  208.946;  211.245;  210.502;-2.29871
 776.27;  200.779;  203.449;  201.405;-2.66973
 776.83;  203.800;  206.935;  204.461;-3.13475
 777.40;  183.067;  185.146;  181.585;-2.07877
 777.96;  184.128;  186.562;  183.867;-2.43379
 778.52;  208.995;  211.924;  207.743;-2.92881
 779.09;  201.531;  205.139;  201.800;-3.60784
 779.65;  203.592;  206.596;  203.406;-3.00386
 780.22;  188.083;  191.477;  187.576;-3.39388
 780.78;  217.296;  219.545;  214.658;-2.24890
 781.34;  214.306;  217.448;  214.646;-3.14192
 781.91;  192.396;  195.823;  191.584;-3.42694
 782.47;  233.419;  236.677;  232.910;-3.25796
 783.03;  212.502;  215.245;  211.398;-2.74298
 783.60;  191.332;  194.822;  191.427;-3.49000
 784.16;  220.527;  222.448;  220.687;-1.92002
 784.72;  192.505;  195.975;  193.537;-3.47004
 785.29;  200.811;  204.757;  201.212;-3.94606
 785.85;  221.232;  224.009;  220.478;-2.77709
 786.41;  207.360;  208.712;  206.244;-1.35211
 786.98;  197.771;  200.760;  197.510;-2.98913
 787.54;  219.944;  222.384;  218.860;-2.44015
 788.10;  196.031;  199.111;  196.332;-3.08017
 788.67;  209.128;  213.399;  210.754;-4.27119
 789.23;  199.448;  202.297;  198.879;-2.84921
 789.79;  213.013;  215.844;  213.134;-2.83123
 790.36;  192.039;  194.272;  191.785;-2.23325
 790.92;  206.329;  209.568;  206.587;-3.23927
 791.48;  192.308;  194.686;  193.516;-2.37829
 792.05;  217.600;  219.769;  218.837;-2.16931
 792.61;  202.976;  204.998;  203.583;-2.02234
 793.17;  211.707;  213.991;  215.509;-2.28436
 793.73;  220.042;  216.065;  244.626; 3.97662
 794.30;  254.133;  211.749;  356.072;42.38360
 794.86;  275.949;  224.545;  393.666;51.40358
 795.42;  218.332;  204.638;  263.159;13.69356
 795.98;  203.974;  205.454;  211.893;-1.48046
 796.55;  193.556;  194.789;  195.486;-1.23348
 797.11;  210.902;  213.428;  212.302;-2.52650
 797.67;  243.428;  245.488;  245.084;-2.05952
 798.23;  182.858;  185.231;  184.555;-2.37254
 798.80;  217.327;  218.683;  218.281;-1.35556
 799.36;  220.724;  220.889;  232.696;-0.16458
 799.92;  239.774;  214.271;  310.328;25.50339
 800.48;  277.983;  220.741;  413.728;57.24237
 801.05;  277.531;  216.793;  422.721;60.73835
 801.61;  255.060;  214.187;  353.586;40.87333
 802.17;  214.132;  205.839;  244.980; 8.29331
 802.73;  221.093;  220.825;  224.876; 0.26829
 803.29;  185.377;  187.075;  188.525;-1.69773
 803.86;  216.089;  217.860;  216.753;-1.77075
 804.42;  219.055;  221.799;  221.554;-2.74377
 804.98;  235.187;  237.586;  235.995;-2.39879
 805.54;  219.475;  221.901;  220.379;-2.42581
 806.10;  217.282;  219.192;  216.959;-1.90983
 806.66;  249.419;  250.873;  249.895;-1.45386
 807.23;  222.274;  225.518;  223.658;-3.24388
 807.79;  216.298;  218.095;  216.850;-1.79690
 808.35;  226.565;  228.273;  227.824;-1.70792
 808.91;  207.285;  209.176;  212.987;-1.89094
 809.47;  214.692;  198.950;  264.386;15.74204
 810.03;  265.440;  211.783;  392.351;53.65702
 810.60;  312.946;  239.799;  507.373;73.14700
 811.16;  329.895;  204.523;  629.834;125.37298
 811.72;  342.857;  241.340;  583.026;101.51696
 812.28;  232.583;  211.331;  305.465;21.25194
 812.84;  232.125;  230.825;  245.167; 1.29992
 813.40;  242.476;  242.181;  247.112; 0.29489
 813.96;  229.907;  231.585;  235.064;-1.67813
 814.52;  228.624;  231.331;  230.727;-2.70715
 815.09;  216.265;  217.751;  217.536;-1.48617
 815.65;  231.160;  233.517;  230.944;-2.35719
 816.21;  221.778;  225.300;  222.389;-3.52221
 816.77;  226.515;  229.301;  225.660;-2.78623
 817.33;  222.953;  225.238;  222.182;-2.28525
 817.89;  219.259;  222.458;  219.820;-3.19927
 818.45;  253.492;  255.372;  252.643;-1.88029
 819.01;  229.351;  231.940;  231.281;-2.58931
 819.57;  226.308;  228.306;  224.944;-1.99833
 820.13;  223.347;  226.638;  224.373;-3.29136
 820.69;  242.929;  244.863;  243.814;-1.93438
 821.25;  220.076;  224.011;  220.494;-3.93540
 821.82;  212.837;  214.848;  212.805;-2.01142
 822.38;  231.332;  234.229;  231.349;-2.89744
 822.94;  232.892;  234.120;  232.561;-1.22846
 823.50;  228.904;  231.919;  228.708;-3.01548
 824.06;  229.311;  230.757;  230.499;-1.44650
 824.62;  221.127;  221.177;  223.250;-0.04952
 825.18;  260.118;  256.264;  282.566; 3.85446
 825.74;  270.482;  212.827;  403.395;57.65544
 826.30;  317.321;  213.028;  526.098;104.29342
 826.86;  267.194;  217.866;  384.641;49.32839
 827.42;  241.684;  235.818;  267.421; 5.86637
 827.98;  238.588;  239.046;  242.654;-0.45765
 828.54;  224.547;  225.289;  226.714;-0.74167
 829.10;  215.199;  217.202;  216.639;-2.00269
 829.66;  236.010;  237.921;  237.048;-1.91071
 830.22;  219.926;  222.018;  218.789;-2.09173
 830.78;  206.472;  208.527;  205.779;-2.05475
 831.34;  220.517;  223.362;  221.566;-2.84477
 831.90;  232.798;  236.138;  232.594;-3.33979
 832.46;  221.152;  223.782;  222.131;-2.62981
 833.02;  192.861;  197.083;  193.142;-4.22183
 833.58;  226.559;  230.115;  226.969;-3.55586
 834.14;  217.023;  220.476;  217.512;-3.45288
 834.70;  228.720;  231.332;  228.005;-2.61190
 835.25;  197.245;  199.977;  196.137;-2.73192
 835.81;  207.378;  209.255;  206.325;-1.87694
 836.37;  217.700;  219.946;  216.196;-2.24596
 836.93;  230.744;  231.834;  229.202;-1.08998
 837.49;  225.307;  228.320;  224.375;-3.01300
 838.05;  200.650;  204.064;  201.486;-3.41302
 838.61;  212.918;  215.408;  213.059;-2.49004
 839.17;  209.198;  211.379;  211.516;-2.18106
 839.73;  228.282;  221.396;  251.805; 6.88592
 840.29;  267.375;  228.435;  351.164;38.93990
 840.85;  254.015;  206.682;  347.146;47.33287
 841.41;  242.791;  218.037;  322.252;24.75385
 841.97;  275.068;  218.242;  411.688;56.82583
 842.52;  277.933;  217.246;  414.539;60.68681
 843.08;  219.503;  202.932;  272.665;16.57079
 843.64;  209.021;  208.146;  219.877; 0.87477
 844.20;  217.698;  218.055;  219.792;-0.35725
 844.76;  226.950;  229.330;  227.489;-2.38027
 845.32;  183.210;  185.444;  182.083;-2.23429
 845.88;  211.703;  214.084;  212.597;-2.38131
 846.44;  221.697;  224.241;  221.439;-2.54433
 846.99;  231.903;  234.728;  234.014;-2.82535
 847.55;  211.970;  213.945;  211.176;-1.97538
 848.11;  183.287;  185.082;  184.253;-1.79540
 848.67;  209.946;  211.981;  209.677;-2.03542
 849.23;  187.449;  190.398;  187.354;-2.94944
 849.79;  207.911;  210.904;  207.754;-2.99346
 850.34;  217.080;  218.550;  217.249;-1.47048
 850.90;  190.645;  190.252;  198.598; 0.39250
 851.46;  243.272;  227.328;  284.448;15.94448
 852.02;  252.467;  226.958;  310.051;25.50946
 852.58;  196.173;  185.919;  226.479;10.25444
 853.13;  206.235;  205.795;  212.880; 0.44042
 853.69;  206.963;  209.143;  207.591;-2.17960
 854.25;  241.811;  244.233;  240.958;-2.42163
 854.81;  202.546;  204.708;  201.292;-2.16165
 855.37;  205.440;  208.307;  203.110;-2.86667
 855.92;  225.821;  229.252;  225.933;-3.43069
 856.48;  206.005;  208.377;  204.808;-2.37171
 857.04;  227.027;  228.688;  224.937;-1.66073
 857.60;  222.619;  226.150;  221.691;-3.53075
 858.16;  218.791;  221.937;  217.639;-3.14577
 858.71;  228.795;  231.243;  227.251;-2.44779
 859.27;  211.007;  214.382;  210.295;-3.37481
 859.83;  211.459;  213.217;  211.887;-1.75783
 860.39;  208.324;  211.025;  207.988;-2.70085
 860.94;  208.991;  211.447;  208.898;-2.45588
 861.50;  203.113;  204.777;  202.645;-1.66390
 862.06;  217.354;  220.290;  216.264;-2.93592
 862.61;  217.018;  219.647;  216.371;-2.62894
 863.17;  188.996;  190.978;  187.515;-1.98196
 863.73;  223.235;  225.883;  223.272;-2.64798
 864.29;  212.949;  215.231;  211.240;-2.28200
 864.84;  220.094;  223.541;  219.672;-3.44602
 865.40;  220.062;  221.994;  219.038;-1.93204
 865.96;  206.757;  207.350;  208.804;-0.59306
 866.51;  215.329;  214.031;  222.897; 1.29792
 867.07;  223.982;  224.850;  228.737;-0.86810
 867.63;  236.166;  238.737;  236.493;-2.57113
 868.18;  230.083;  232.868;  229.520;-2.78515
 868.74;  231.210;  233.738;  230.043;-2.52817
 869.30;  214.580;  217.828;  213.752;-3.24819
 869.86;  201.745;  204.089;  201.508;-2.34421
 870.41;  239.305;  240.623;  237.917;-1.31823
 870.97;  211.535;  213.714;  209.444;-2.17925
 871.52;  213.503;  217.067;  212.542;-3.56427
 872.08;  236.037;  238.127;  235.584;-2.09029
 872.64;  218.852;  221.349;  218.988;-2.49731
 873.19;  196.571;  199.040;  195.874;-2.46933
 873.75;  209.731;  212.121;  209.072;-2.39035
 874.31;  204.739;  207.322;  203.565;-2.58338
 874.86;  227.646;  230.177;  226.270;-2.53138
 875.42;  238.188;  240.846;  237.359;-2.65838
 875.98;  218.870;  222.242;  218.238;-3.37237
 876.53;  219.662;  222.295;  218.441;-2.63338
 877.09;  237.267;  241.741;  237.172;-4.47438
 877.64;  220.595;  222.889;  219.847;-2.29438
 878.20;  217.878;  219.631;  217.135;-1.75338
 878.76;  231.931;  233.231;  230.433;-1.30038
 879.31;  192.661;  194.131;  191.037;-1.47037
 879.87;  224.764;  228.032;  225.200;-3.26837
 880.42;  219.091;  221.918;  218.426;-2.82738
 880.98;  208.065;  210.557;  206.335;-2.49237
 881.54;  241.535;  243.424;  239.657;-1.88938
 882.09;  217.247;  220.116;  217.616;-2.86938
 882.65;  234.716;  237.168;  233.592;-2.45238
 883.20;  229.598;  231.489;  227.445;-1.89137
 883.76;  229.425;  233.743;  229.491;-4.31838
 884.31;  224.243;  226.603;  222.772;-2.36038
 884.87;  254.240;  256.524;  252.670;-2.28438
 885.42;  215.685;  219.318;  214.634;-3.63338
 885.98;  203.067;  206.523;  203.171;-3.45637
 886.53;  222.730;  226.290;  221.606;-3.56038
 887.09;  235.232;  237.940;  233.277;-2.70838
 887.65;  225.300;  229.196;  227.075;-3.89637
 888.20;  220.636;  223.925;  219.081;-3.28938
 888.76;  217.907;  220.715;  216.553;-2.80838
 889.31;  227.924;  230.708;  227.063;-2.78438
 889.87;  228.508;  230.738;  226.933;-2.23038
 890.42;  220.225;  222.643;  219.404;-2.41838
 890.98;  225.323;  229.285;  224.217;-3.96238
 891.53;  199.029;  201.177;  198.956;-2.14837
 892.09;  236.261;  238.930;  233.343;-2.66938
 892.64;  217.793;  220.890;  217.915;-3.09737
 893.19;  222.777;  225.413;  221.488;-2.63637
 893.75;  208.022;  210.257;  206.559;-2.23538
 894.30;  236.479;  240.083;  236.042;-3.60438
 894.86;  205.694;  208.500;  205.145;-2.80638
 895.41;  242.848;  246.450;  242.484;-3.60237
 895.97;  206.425;  210.036;  207.451;-3.61138
 896.52;  243.466;  246.870;  244.098;-3.40438
 897.08;  226.347;  229.928;  227.097;-3.58138
 897.63;  242.761;  246.046;  242.463;-3.28538
 898.19;  225.317;  226.919;  221.941;-1.60237
 898.74;  243.297;  247.075;  241.964;-3.77838
 899.29;  241.330;  245.273;  241.423;-3.94338
 899.85;  217.906;  221.740;  217.840;-3.83438
 900.40;  224.215;  226.652;  224.623;-2.43738
 900.96;  226.090;  228.804;  224.386;-2.71438
 901.51;  222.805;  226.461;  221.344;-3.65637
 902.06;  226.307;  229.154;  225.298;-2.84738
 902.62;  238.591;  240.257;  235.915;-1.66638
 903.17;  232.642;  235.968;  232.176;-3.32637
 903.73;  235.162;  237.288;  235.707;-2.12637
 904.28;  218.107;  221.110;  216.385;-3.00338
 904.83;  250.889;  252.668;  249.126;-1.77938
 905.39;  203.641;  206.849;  202.872;-3.20838
 905.94;  230.426;  232.762;  229.504;-2.33638
 906.50;  240.571;  242.708;  239.323;-2.13738
 907.05;  219.920;  223.208;  219.363;-3.28838
 907.60;  237.233;  240.532;  236.963;-3.29937
 908.16;  227.955;  230.390;  228.085;-2.43538
 908.71;  229.787;  232.919;  229.913;-3.13238
 909.26;  233.202;  236.041;  233.397;-2.83938
 909.82;  226.557;  228.579;  227.376;-2.02238
 910.37;  230.802;  232.106;  235.399;-1.30438
 910.92;  250.255;  242.182;  281.745; 8.07263
 911.48;  308.208;  240.046;  481.890;68.16162
 912.03;  334.758;  213.506;  613.633;121.25163
 912.58;  295.499;  230.910;  476.373;64.58863
 913.14;  246.161;  236.834;  301.799; 9.32662
 913.69;  257.642;  259.090;  269.488;-1.44838
 914.24;  217.381;  219.311;  222.219;-1.93038
 914.79;  216.054;  219.736;  218.365;-3.68238
 915.35;  233.952;  236.230;  234.392;-2.27837
 915.90;  240.410;  242.465;  240.487;-2.05538
 916.45;  219.325;  221.242;  218.208;-1.91737
 917.01;  233.448;  237.045;  232.894;-3.59737
 917.56;  228.738;  230.356;  227.311;-1.61838
 918.11;  227.648;  229.497;  226.003;-1.84938
 918.66;  221.519;  224.129;  220.789;-2.61037
 919.22;  235.962;  240.044;  236.207;-4.08238
 919.77;  220.976;  223.635;  221.133;-2.65938
 920.32;  225.699;  227.047;  224.244;-1.34837
 920.87;  230.930;  232.274;  232.864;-1.34438
 921.43;  230.892;  225.202;  250.486; 5.68962
 921.98;  231.019;  213.204;  276.799;17.81462
 922.53;  231.440;  217.440;  271.522;13.99962
 923.08;  230.138;  228.020;  245.586; 2.11762
 923.64;  227.326;  229.200;  232.794;-1.87438
 924.19;  230.267;  233.323;  231.064;-3.05638
 924.74;  210.371;  212.539;  211.372;-2.16838
 925.29;  259.042;  262.397;  260.667;-3.35537
 925.84;  235.257;  237.061;  234.899;-1.80437
 926.40;  213.393;  216.508;  212.506;-3.11538
 926.95;  215.218;  218.243;  214.402;-3.02538
 927.50;  216.311;  219.375;  216.696;-3.06438
 928.05;  226.520;  229.965;  226.066;-3.44538
 928.60;  212.256;  215.523;  210.903;-3.26738
 929.15;  229.593;  230.880;  228.948;-1.28738
 929.71;  240.617;  242.676;  238.862;-2.05938
 930.26;  220.560;  222.682;  220.145;-2.12237
 930.81;  226.958;  229.181;  226.373;-2.22338
 931.36;  236.501;  239.031;  235.832;-2.53038
 931.91;  242.475;  245.393;  241.662;-2.91838
 932.46;  238.609;  241.385;  237.655;-2.77638
 933.02;  225.941;  227.525;  224.869;-1.58438
 933.57;  213.177;  215.460;  211.497;-2.28338
 934.12;  212.987;  215.440;  212.075;-2.45338
 934.67;  229.675;  232.845;  232.336;-3.17037
 935.22;  222.119;  224.509;  225.680;-2.39038
 935.77;  247.560;  250.605;  247.265;-3.04538
 936.32;  232.892;  236.352;  233.242;-3.46037
 936.87;  234.984;  238.464;  234.404;-3.48038
 937.42;  229.467;  233.718;  230.149;-4.25137
 937.98;  210.043;  213.547;  211.733;-3.50437
 938.53;  222.745;  226.826;  221.566;-4.08137
 939.08;  213.107;  216.235;  213.091;-3.12838
 939.63;  235.263;  238.121;  233.627;-2.85838
 940.18;  245.152;  248.052;  245.398;-2.90037
 940.73;  224.219;  226.755;  224.525;-2.53638
 941.28;  209.589;  213.214;  210.218;-3.62538
 941.83;  218.432;  222.208;  218.300;-3.77638
 942.38;  212.605;  216.460;  212.832;-3.85538
 942.93;  229.926;  232.922;  228.633;-2.99638
 943.48;  226.779;  231.096;  227.078;-4.31738
 944.03;  212.930;  214.050;  210.439;-1.12037
 944.58;  217.134;  219.135;  217.194;-2.00138
 945.13;  212.477;  216.153;  212.387;-3.67638
 945.68;  205.745;  208.540;  206.217;-2.79537
 946.23;  214.381;  217.670;  213.880;-3.28938
 946.79;  215.073;  217.395;  214.171;-2.32238
 947.34;  233.527;  237.428;  232.911;-3.90138
 947.89;  239.944;  241.466;  238.836;-1.52238
 948.44;  219.156;  222.454;  219.284;-3.29838
 948.99;  218.212;  220.752;  216.924;-2.54037
 949.54;  232.570;  234.806;  230.186;-2.23638
 950.09;  216.260;  219.000;  216.219;-2.74038
 950.64;  214.342;  217.469;  213.164;-3.12738
 951.19;  196.269;  199.464;  195.816;-3.19538
 951.73;  188.111;  191.189;  187.208;-3.07837
 952.28;  231.050;  233.343;  230.870;-2.29337
 952.83;  224.735;  226.795;  222.726;-2.06037
 953.38;  244.081;  247.102;  243.581;-3.02138
 953.93;  217.603;  220.679;  216.650;-3.07637
 954.48;  217.979;  222.478;  219.371;-4.49938
 955.03;  223.866;  226.571;  222.641;-2.70538
 955.58;  221.070;  224.673;  220.638;-3.60338
 956.13;  193.582;  196.209;  192.119;-2.62738
 956.68;  204.743;  207.758;  204.813;-3.01538
 957.23;  191.199;  195.082;  190.369;-3.88338
 957.78;  205.360;  207.891;  204.342;-2.53137
 958.33;  183.996;  187.886;  184.908;-3.89038
 958.88;  214.079;  216.637;  214.074;-2.55838
 959.43;  220.815;  223.071;  220.660;-2.25637
 959.98;  208.092;  210.963;  207.110;-2.87138
 960.53;  236.998;  241.196;  235.735;-4.19837
 961.07;  208.334;  210.595;  205.337;-2.26137
 961.62;  250.735;  253.181;  250.070;-2.44637
 962.17;  213.545;  217.605;  213.949;-4.06038
 962.72;  218.323;  222.456;  217.978;-4.13338
 963.27;  218.334;  221.585;  218.272;-3.25137
 963.82;  206.892;  209.494;  207.269;-2.60237
 964.37;  231.351;  231.135;  240.124; 0.21562
 964.92;  225.267;  212.368;  264.450;12.89862
 965.46;  221.455;  201.226;  280.889;20.22862
 966.01;  223.596;  214.365;  262.804; 9.23062
 966.56;  226.767;  227.062;  237.515;-0.29537
 967.11;  225.938;  228.344;  227.550;-2.40638
 967.66;  212.222;  215.327;  213.586;-3.10538
 968.21;  207.714;  210.560;  208.194;-2.84638
 968.75;  226.730;  229.508;  224.204;-2.77838
 969.30;  217.518;  219.654;  216.833;-2.13638
 969.85;  234.547;  238.621;  233.361;-4.07438
 970.40;  222.530;  226.471;  220.821;-3.94138
 970.95;  227.489;  230.410;  226.071;-2.92138
 971.50;  223.868;  226.693;  223.994;-2.82538
 972.04;  226.265;  228.668;  225.460;-2.40338
 972.59;  234.164;  237.900;  233.089;-3.73638
 973.14;  228.598;  230.143;  226.225;-1.54537
 973.69;  236.850;  239.779;  235.642;-2.92938
 974.24;  220.278;  224.362;  220.206;-4.08438
 974.78;  216.176;  219.900;  215.873;-3.72438
 975.33;  247.172;  249.893;  245.834;-2.72138
 975.88;  230.326;  234.224;  229.422;-3.89838
 976.43;  228.163;  231.270;  227.200;-3.10737
 976.97;  222.736;  225.476;  220.970;-2.74038
 977.52;  211.998;  213.921;  212.176;-1.92338
 978.07;  258.224;  259.339;  261.140;-1.11538
 978.62;  247.957;  250.695;  249.999;-2.73837
 979.16;  244.946;  247.323;  245.899;-2.37738
 979.71;  211.825;  214.525;  211.338;-2.70038
 980.26;  234.288;  236.525;  233.353;-2.23737
 980.81;  231.881;  235.423;  230.718;-3.54238
 981.35;  255.707;  257.470;  254.809;-1.76338
 981.90;  243.572;  247.220;  241.517;-3.64837
 982.45;  239.085;  244.110;  240.405;-5.02537
 982.99;  243.712;  246.699;  242.664;-2.98737
 983.54;  241.634;  244.785;  239.293;-3.15138
 984.09;  233.126;  235.596;  231.355;-2.47038
 984.63;  229.908;  232.859;  228.448;-2.95138
 985.18;  243.377;  245.675;  242.377;-2.29837
 985.73;  238.206;  240.310;  235.860;-2.10438
 986.27;  226.727;  229.021;  224.967;-2.29438
 986.82;  233.675;  236.714;  233.190;-3.03938
 987.37;  248.793;  252.461;  246.808;-3.66838
 987.91;  238.901;  242.035;  236.652;-3.13437
 988.46;  247.716;  250.907;  247.721;-3.19137
 989.01;  239.169;  243.046;  237.572;-3.87738
 989.55;  242.267;  245.620;  241.214;-3.35338
 990.10;  249.602;  252.758;  248.030;-3.15637
 990.65;  264.880;  267.722;  262.831;-2.84238
 991.19;  237.235;  240.603;  236.217;-3.36838
 991.74;  255.080;  258.469;  254.016;-3.38937
 992.29;  244.788;  247.749;  243.190;-2.96137
 992.83;  256.482;  259.957;  254.085;-3.47538
 993.38;  250.025;  253.418;  247.359;-3.39338
 993.92;  229.011;  231.532;  226.472;-2.52138
 994.47;  217.947;  221.206;  216.807;-3.25937
 995.02;  237.098;  240.940;  236.735;-3.84238
 995.56;  257.239;  261.084;  256.692;-3.84537
 996.11;  247.984;  250.205;  246.882;-2.22137
 996.65;  248.743;  251.539;  247.876;-2.79638
 997.20;  243.416;  246.573;  240.294;-3.15738
 997.75;  240.783;  244.305;  239.437;-3.52238
 998.29;  217.698;  220.107;  216.133;-2.40938
 998.84;  246.285;  250.724;  245.329;-4.43937
 999.38;  247.240;  250.042;  244.812;-2.80238
 999.93;  263.207;  267.209;  261.675;-4.00237
1000.47;  259.542;  264.324;  260.831;-4.78237
1001.02;  254.081;  257.092;  253.386;-3.01137
1001.56;  241.505;  244.824;  239.780;-3.31937
1002.11;  232.037;  234.738;  230.445;-2.70138
1002.65;  225.030;  228.565;  223.243;-3.53538
1003.20;  234.041;  237.052;  231.881;-3.01137
1003.75;  266.389;  269.606;  266.036;-3.21738
1004.29;  235.807;  238.538;  233.303;-2.73138
1004.84;  220.270;  223.671;  220.546;-3.40138
1005.38;  224.158;  227.224;  222.859;-3.06638
1005.93;  241.446;  246.906;  241.364;-5.46038
1006.47;  220.694;  224.462;  220.692;-3.76838
1007.02;  228.572;  231.833;  227.662;-3.26137
1007.56;  245.511;  247.433;  242.798;-1.92238
1008.11;  250.736;  252.720;  249.411;-1.98438
1008.65;  208.586;  212.672;  207.079;-4.08637
1009.19;  237.640;  240.140;  236.390;-2.50038
1009.74;  231.920;  236.623;  231.223;-4.70338
1010.28;  235.360;  238.127;  234.215;-2.76737
1010.83;  243.148;  246.572;  242.437;-3.42438
1011.37;  236.656;  240.282;  235.037;-3.62637
1011.92;  235.102;  238.095;  235.208;-2.99338
1012.46;  230.044;  231.437;  230.410;-1.39337
1013.01;  273.232;  267.813;  282.128; 5.41862
1013.55;  249.271;  236.714;  261.377;12.55662
1014.09;  238.562;  232.679;  247.080; 5.88263
1014.64;  230.224;  232.536;  235.199;-2.31238
1015.18;  226.475;  228.881;  226.875;-2.40638
1015.73;  221.899;  223.733;  221.345;-1.83438
1016.27;  241.264;  244.244;  239.850;-2.98037
1016.82;  234.448;  237.116;  232.899;-2.66838
1017.36;  226.492;  228.573;  224.463;-2.08138
1017.90;  215.818;  219.031;  214.821;-3.21338
1018.45;  210.081;  215.172;  209.010;-5.09138
1018.99;  212.193;  214.070;  213.271;-1.87738
1019.53;  201.778;  203.228;  199.948;-1.45038
1020.08;  228.805;  230.973;  227.485;-2.16837
1020.62;  230.469;  232.690;  229.827;-2.22138
1021.17;  233.764;  236.888;  232.392;-3.12437
1021.71;  232.923;  236.822;  232.866;-3.89938
1022.25;  241.105;  244.782;  239.904;-3.67738
1022.80;  214.843;  218.831;  214.907;-3.98838
1023.34;  212.583;  216.610;  211.512;-4.02738
1023.88;  226.785;  231.207;  224.103;-4.42238
1024.43;  230.069;  232.772;  229.391;-2.70338
1024.97;  234.173;  237.512;  233.233;-3.33938
1025.51;  213.706;  216.658;  213.395;-2.95238
1026.06;  229.857;  232.703;  227.836;-2.84638
1026.60;  233.253;  236.932;  233.723;-3.67937
1027.14;  245.565;  249.520;  244.366;-3.95538
1027.69;  234.520;  237.157;  232.097;-2.63738
1028.23;  228.605;  231.829;  228.253;-3.22438
1028.77;  213.058;  216.286;  212.300;-3.22838
1029.31;  225.430;  228.645;  224.128;-3.21537
1029.86;  217.215;  220.976;  216.083;-3.76138
1030.40;  263.910;  266.957;  262.077;-3.04738
1030.94;  233.624;  235.602;  232.446;-1.97838
1031.48;  243.195;  244.798;  240.883;-1.60338
1032.03;  230.503;  232.974;  227.501;-2.47138
1032.57;  231.205;  233.237;  229.752;-2.03238
1033.11;  225.875;  229.291;  224.720;-3.41638
1033.65;  215.683;  218.770;  213.877;-3.08738
1034.20;  236.403;  239.433;  235.433;-3.03038
1034.74;  233.114;  237.444;  231.019;-4.33038
1035.28;  232.523;  235.133;  231.832;-2.61038
1035.82;  210.341;  212.102;  209.377;-1.76137
1036.37;  223.585;  227.358;  221.872;-3.77338
1036.91;  249.165;  252.225;  248.405;-3.06038
1037.45;  239.710;  242.746;  237.398;-3.03638
1037.99;  227.811;  232.628;  227.965;-4.81738
1038.53;  230.163;  233.175;  229.202;-3.01237
1039.08;  217.736;  221.923;  217.129;-4.18738
1039.62;  217.542;  221.811;  215.711;-4.26938
1040.16;  222.515;  225.614;  220.940;-3.09938
1040.70;  228.158;  231.381;  226.788;-3.22338
1041.24;  244.293;  247.323;  243.321;-3.03037
1041.79;  219.673;  221.850;  217.096;-2.17737
1042.33;  224.733;  228.640;  223.935;-3.90738
1042.87;  219.051;  221.520;  216.620;-2.46938
1043.41;  224.445;  227.631;  221.794;-3.18637
1043.95;  235.454;  238.994;  234.674;-3.54037
1044.49;  203.522;  207.804;  204.268;-4.28238
1045.04;  235.317;  238.040;  234.685;-2.72337
1045.58;  227.599;  230.631;  225.050;-3.03238
1046.12;  257.673;  261.397;  256.429;-3.72437
1046.66;  238.456;  241.752;  239.465;-3.29638
1047.20;  218.217;  222.346;  220.647;-4.12938
1047.74;  254.169;  257.442;  252.264;-3.27338
1048.28;  234.522;  237.555;  234.715;-3.03338
1048.82;  250.709;  254.263;  249.899;-3.55438
1049.36;  254.020;  257.431;  252.537;-3.41137
1049.91;  242.505;  244.699;  240.839;-2.19437
1050.45;  234.833;  237.715;  233.443;-2.88238
1050.99;  254.003;  257.972;  253.565;-3.96938
1051.53;  259.418;  261.630;  258.198;-2.21238
1052.07;  232.837;  235.932;  231.546;-3.09537
1052.61;  232.641;  237.559;  231.951;-4.91838
1053.15;  242.712;  247.051;  242.976;-4.33938
1053.69;  236.211;  239.441;  236.380;-3.23037
1054.23;  241.434;  245.890;  241.171;-4.45638
1054.77;  256.605;  260.772;  255.399;-4.16737
1055.31;  240.139;  244.026;  239.084;-3.88737
1055.85;  233.270;  236.281;  232.209;-3.01138
1056.39;  232.516;  236.749;  231.936;-4.23338
1056.93;  242.149;  245.006;  240.459;-2.85737
1057.47;  252.050;  255.638;  250.912;-3.58838
1058.01;  249.692;  253.134;  248.715;-3.44238
1058.55;  246.728;  250.173;  246.950;-3.44538
1059.09;  247.105;  250.724;  246.105;-3.61937
1059.63;  255.501;  258.518;  252.957;-3.01738
1060.17;  267.297;  271.402;  266.822;-4.10537
1060.71;  233.297;  236.022;  231.876;-2.72538
1061.25;  244.410;  248.550;  243.753;-4.14038
1061.79;  245.448;  249.245;  243.820;-3.79738
1062.33;  239.017;  241.609;  237.818;-2.59238
1062.87;  269.646;  272.206;  267.178;-2.56038
1063.41;  247.400;  250.170;  245.913;-2.77038
1063.95;  254.363;  257.994;  253.445;-3.63138
1064.49;  235.873;  238.396;  236.618;-2.52337
1065.03;  292.925;  296.704;  291.184;-3.77938
1065.57;  266.083;  270.216;  263.442;-4.13338
1066.11;  247.660;  250.404;  245.700;-2.74438
1066.65;  245.020;  247.966;  242.225;-2.94638
1067.19;  261.117;  264.328;  258.730;-3.21138
1067.73;  269.417;  272.864;  267.504;-3.44738
1068.27;  238.234;  242.198;  236.573;-3.96438
1068.81;  243.533;  248.219;  242.997;-4.68638
1069.35;  269.321;  272.494;  267.481;-3.17338
1069.89;  235.795;  239.494;  234.383;-3.69938
1070.43;  260.406;  263.514;  259.943;-3.10838
1070.96;  257.034;  261.175;  254.939;-4.14137
1071.50;  256.232;  259.205;  253.966;-2.97337
1072.04;  252.020;  254.928;  249.432;-2.90838
1072.58;  257.707;  260.967;  255.917;-3.26038
1073.12;  268.606;  270.697;  266.714;-2.09138
1073.66;  239.374;  242.694;  237.410;-3.32038
1074.20;  247.515;  250.650;  248.196;-3.13538
1074.74;  255.515;  258.221;  253.551;-2.70638
1075.27;  242.825;  246.118;  243.897;-3.29338
1075.81;  246.133;  247.862;  243.029;-1.72938
1076.35;  251.526;  254.689;  249.120;-3.16338
1076.89;  253.400;  256.565;  251.325;-3.16537
1077.43;  270.123;  272.947;  267.999;-2.82438
1077.97;  256.704;  260.391;  256.720;-3.68738
1078.50;  254.754;  258.435;  252.985;-3.68137
1079.04;  245.379;  248.393;  242.128;-3.01438
1079.58;  251.210;  254.955;  249.444;-3.74537
1080.12;  246.287;  250.083;  245.012;-3.79638
1080.66;  260.719;  266.546;  260.419;-5.82738
1081.20;  239.633;  244.011;  239.541;-4.37838
1081.73;  236.110;  239.497;  233.654;-3.38737
1082.27;  256.668;  260.170;  252.998;-3.50237
1082.81;  259.106;  262.334;  257.378;-3.22837
1083.35;  250.862;  253.962;  248.599;-3.10038
1083.88;  250.797;  254.193;  248.179;-3.39638
1084.42;  266.422;  268.895;  265.394;-2.47337
1084.96;  242.855;  245.945;  241.314;-3.09038
1085.50;  252.529;  254.803;  249.738;-2.27438
1086.04;  248.395;  250.790;  246.985;-2.39538
1086.57;  273.618;  277.019;  271.691;-3.40138
1087.11;  251.242;  253.851;  249.705;-2.60938
1087.65;  240.689;  245.599;  240.281;-4.91038
1088.19;  265.386;  268.889;  264.683;-3.50338
1088.72;  251.436;  252.668;  249.220;-1.23237
1089.26;  242.477;  246.426;  240.830;-3.94938
1089.80;  236.671;  239.921;  235.334;-3.25038
1090.33;  274.431;  277.901;  273.528;-3.47037
1090.87;  229.443;  233.943;  227.543;-4.50038
1091.41;  235.165;  238.609;  233.488;-3.44438
1091.95;  252.356;  256.121;  250.943;-3.76538
1092.48;  264.239;  268.358;  263.655;-4.11937
1093.02;  236.436;  240.535;  235.415;-4.09938
1093.56;  255.688;  259.101;  254.412;-3.41338
1094.09;  231.410;  234.847;  229.661;-3.43738
1094.63;  231.584;  235.308;  230.537;-3.72438
1095.17;  237.705;  241.362;  236.861;-3.65738
1095.70;  251.990;  255.838;  250.037;-3.84837
1096.24;  239.817;  242.660;  237.502;-2.84337
1096.78;  236.238;  239.928;  234.609;-3.69038
1097.31;  238.693;  242.207;  237.279;-3.51438
1097.85;  244.752;  248.544;  243.933;-3.79237
1098.39;  228.916;  232.669;  227.157;-3.75338
1098.92;  244.392;  246.951;  243.537;-2.55937
1099.46;  250.551;  254.286;  249.128;-3.73537
1099.99;  240.421;  244.255;  239.172;-3.83438
1100.53;  245.347;  249.382;  244.501;-4.03537

