
Integration time [ms]:   0.100
Averaging Nr. [scans]: 1000
Smoothing Nr. [pixels]: 0
Data measured with spectrometer [name]: 7213323SP
Wave   ;Sample   ;Dark     ;Reference;Scope Corrected for Dark
[nm]   ;[counts] ;[counts] ;[counts] ;[counts] 

 175.65;  183.355;  180.919;  180.414; 2.43595
 176.25;  203.050;  200.771;  201.051; 2.27884
 176.85;  200.662;  198.074;  197.041; 2.58816
 177.45;  200.353;  199.398;  199.894; 0.95478
 178.05;  191.820;  191.085;  190.085; 0.73473
 178.65;  191.431;  189.686;  189.195; 1.74448
 179.25;  186.351;  185.439;  186.282; 0.91235
 179.85;  195.021;  193.332;  191.669; 1.68884
 180.45;  186.546;  184.832;  185.031; 1.71460
 181.05;  228.815;  226.307;  226.588; 2.50842
 181.65;  188.349;  187.039;  188.083; 1.30950
 182.25;  210.443;  207.692;  206.883; 2.75125
 182.86;  206.021;  204.005;  202.121; 2.01625
 183.46;  203.721;  202.367;  200.708; 1.35374
 184.06;  186.908;  184.141;  185.033; 2.76711
 184.66;  166.103;  166.129;  164.643;-0.02594
 185.26;  209.931;  208.305;  214.998; 1.62575
 185.86;  192.763;  189.907;  191.880; 2.85611
 186.46;  212.166;  210.353;  211.614; 1.81262
 187.06;  194.641;  192.861;  194.406; 1.77999
 187.66;  217.575;  215.591;  216.525; 1.98378
 188.26;  221.832;  219.979;  220.940; 1.85371
 188.86;  200.073;  200.952;  200.640;-0.87880
 189.46;  197.027;  196.104;  198.052; 0.92355
 190.06;  187.730;  186.631;  188.358; 1.09945
 190.66;  192.877;  192.343;  194.493; 0.53361
 191.26;  212.503;  210.484;  212.779; 2.01946
 191.86;  207.446;  206.545;  207.622; 0.90164
 192.46;  206.526;  204.911;  206.770; 1.61547
 193.06;  209.106;  206.281;  207.841; 2.82501
 193.66;  197.353;  196.673;  199.942; 0.68003
 194.26;  214.854;  214.002;  218.472; 0.85192
 194.86;  183.730;  181.785;  184.097; 1.94449
 195.46;  190.385;  189.136;  189.176; 1.24841
 196.06;  204.014;  202.019;  202.533; 1.99470
 196.66;  180.465;  179.580;  181.286; 0.88489
 197.26;  179.840;  178.678;  180.080; 1.16206
 197.86;  210.681;  208.508;  210.197; 2.17291
 198.46;  179.266;  177.168;  179.072; 2.09777
 199.06;  205.739;  204.760;  206.441; 0.97954
 199.66;  195.434;  193.588;  194.867; 1.84653
 200.26;  184.232;  182.810;  185.670; 1.42220
 200.85;  201.974;  200.569;  202.080; 1.40557
 201.45;  194.204;  193.142;  195.434; 1.06129
 202.05;  195.368;  193.539;  195.645; 1.82951
 202.65;  189.609;  188.779;  189.896; 0.83063
 203.25;  180.734;  179.750;  181.206; 0.98444
 203.85;  194.057;  193.742;  195.949; 0.31480
 204.45;  223.771;  223.319;  226.293; 0.45258
 205.05;  169.068;  168.522;  170.599; 0.54570
 205.65;  178.016;  176.045;  177.581; 1.97069
 206.25;  203.223;  202.882;  205.331; 0.34067
 206.85;  182.548;  180.907;  183.435; 1.64096
 207.45;  190.995;  189.768;  191.637; 1.22695
 208.05;  179.335;  177.930;  180.242; 1.40469
 208.65;  181.525;  179.849;  182.976; 1.67561
 209.25;  174.118;  173.287;  174.426; 0.83056
 209.84;  202.855;  202.179;  203.273; 0.67551
 210.44;  184.219;  182.224;  184.524; 1.99475
 211.04;  218.094;  216.133;  219.523; 1.96091
 211.64;  184.789;  182.315;  184.227; 2.47438
 212.24;  194.984;  193.615;  196.408; 1.36908
 212.84;  190.703;  188.539;  191.061; 2.16343
 213.44;  178.179;  175.962;  179.735; 2.21691
 214.04;  177.712;  174.930;  178.889; 2.78207
 214.64;  194.298;  192.531;  196.183; 1.76691
 215.24;  173.475;  172.409;  175.860; 1.06623
 215.83;  195.602;  194.541;  195.308; 1.06049
 216.43;  162.404;  162.022;  164.475; 0.38204
 217.03;  171.168;  169.678;  173.835; 1.49003
 217.63;  175.254;  174.214;  178.008; 1.04051
 218.23;  184.716;  184.270;  187.688; 0.44624
 218.83;  177.351;  175.814;  179.547; 1.53704
 219.43;  174.093;  173.026;  177.218; 1.06714
 220.03;  165.866;  164.787;  168.913; 1.07924
 220.62;  173.403;  170.551;  174.999; 2.85180
 221.22;  182.682;  181.366;  185.496; 1.31587
 221.82;  187.064;  186.418;  189.660; 0.64541
 222.42;  165.600;  164.503;  168.935; 1.09716
 223.02;  178.344;  177.713;  182.327; 0.63140
 223.62;  169.654;  167.507;  175.421; 2.14735
 224.22;  190.360;  187.944;  195.708; 2.41554
 224.81;  183.531;  181.577;  190.209; 1.95387
 225.41;  181.711;  179.759;  189.807; 1.95176
 226.01;  167.711;  166.718;  175.050; 0.99332
 226.61;  170.964;  169.448;  178.854; 1.51650
 227.21;  171.074;  168.681;  178.313; 2.39366
 227.81;  196.160;  194.556;  205.112; 1.60413
 228.40;  163.981;  162.267;  172.708; 1.71447
 229.00;  171.752;  170.117;  181.048; 1.63469
 229.60;  174.356;  173.806;  183.766; 0.55061
 230.20;  200.442;  198.141;  211.512; 2.30091
 230.80;  160.418;  159.033;  172.378; 1.38547
 231.39;  156.143;  156.077;  169.722; 0.06608
 231.99;  175.832;  174.254;  189.251; 1.57863
 232.59;  201.237;  200.302;  217.599; 0.93450
 233.19;  171.570;  170.157;  188.513; 1.41312
 233.79;  184.078;  183.263;  202.434; 0.81454
 234.38;  168.977;  167.956;  190.099; 1.02113
 234.98;  175.575;  173.599;  196.074; 1.97576
 235.58;  179.179;  177.265;  201.586; 1.91456
 236.18;  190.956;  188.653;  212.456; 2.30233
 236.78;  177.549;  176.653;  202.247; 0.89621
 237.37;  190.074;  188.880;  218.441; 1.19469
 237.97;  193.902;  193.095;  224.600; 0.80751
 238.57;  195.432;  194.206;  226.967; 1.22594
 239.17;  166.688;  164.346;  198.792; 2.34197
 239.76;  185.676;  183.664;  220.862; 2.01231
 240.36;  173.694;  172.105;  212.675; 1.58858
 240.96;  203.174;  201.269;  243.349; 1.90559
 241.56;  169.922;  170.013;  211.808;-0.09112
 242.15;  178.039;  175.926;  223.065; 2.11285
 242.75;  195.905;  194.651;  246.418; 1.25346
 243.35;  173.518;  172.579;  226.927; 0.93963
 243.95;  184.885;  183.389;  243.754; 1.49627
 244.54;  199.010;  197.162;  259.178; 1.84831
 245.14;  192.491;  190.255;  258.872; 2.23596
 245.74;  209.566;  208.147;  280.750; 1.41909
 246.34;  181.228;  179.384;  260.989; 1.84457
 246.93;  195.633;  194.540;  283.881; 1.09276
 247.53;  150.357;  150.490;  263.537;-0.13325
 248.13;  190.415;  189.377;  330.762; 1.03818
 248.73;  180.015;  177.307;  312.884; 2.70788
 249.32;  182.920;  182.365;  307.340; 0.55475
 249.92;  172.817;  171.068;  313.021; 1.74834
 250.52;  189.752;  187.482;  364.988; 2.27056
 251.11;  188.876;  188.366;  413.921; 0.51043
 251.71;  204.510;  203.136;  535.383; 1.37472
 252.31;  161.299;  160.999; 1116.602; 0.29973
 252.91;  187.175;  184.060;12306.623; 3.11463
 253.50;  153.449;  152.327;38070.578; 1.12207
 254.10;  195.262;  193.074;33115.004; 2.18741
 254.70;  165.430;  162.164; 7397.543; 3.26575
 255.29;  199.406;  198.845;  779.898; 0.56153
 255.89;  183.843;  182.038;  427.893; 1.80514
 256.49;  166.103;  164.713;  337.986; 1.38997
 257.08;  172.489;  171.252;  312.391; 1.23690
 257.68;  187.426;  185.874;  307.577; 1.55168
 258.28;  184.626;  182.976;  290.710; 1.65041
 258.87;  189.860;  187.683;  281.589; 2.17686
 259.47;  175.638;  174.008;  256.904; 1.62931
 260.07;  181.929;  180.645;  258.984; 1.28458
 260.66;  159.239;  157.355;  230.508; 1.88353
 261.26;  207.266;  206.348;  273.389; 0.91798
 261.86;  197.921;  196.204;  260.153; 1.71705
 262.45;  174.073;  172.167;  231.401; 1.90531
 263.05;  174.532;  172.644;  230.199; 1.88792
 263.65;  175.862;  174.826;  226.449; 1.03613
 264.24;  191.637;  190.153;  241.350; 1.48457
 264.84;  202.549;  202.018;  281.498; 0.53091
 265.44;  180.578;  178.873;  273.867; 1.70522
 266.03;  174.991;  174.292;  231.179; 0.69853
 266.63;  165.790;  164.434;  197.785; 1.35580
 267.23;  182.095;  179.403;  211.605; 2.69206
 267.82;  161.677;  160.119;  187.883; 1.55802
 268.42;  169.647;  168.722;  194.649; 0.92431
 269.01;  170.449;  167.434;  194.558; 3.01479
 269.61;  178.752;  177.503;  204.840; 1.24890
 270.21;  182.177;  181.812;  207.045; 0.36448
 270.80;  199.055;  199.492;  224.414;-0.43689
 271.40;  161.684;  161.147;  183.775; 0.53713
 271.99;  198.130;  196.273;  218.373; 1.85703
 272.59;  155.129;  154.755;  177.199; 0.37459
 273.19;  164.954;  164.093;  186.254; 0.86078
 273.78;  154.047;  153.743;  175.177; 0.30466
 274.38;  167.932;  166.434;  193.021; 1.49773
 274.97;  178.333;  176.672;  212.682; 1.66094
 275.57;  177.351;  175.871;  215.124; 1.48048
 276.17;  149.714;  148.295;  175.473; 1.41876
 276.76;  177.843;  176.866;  200.892; 0.97679
 277.36;  174.516;  173.676;  195.657; 0.84021
 277.95;  179.418;  179.146;  202.104; 0.27197
 278.55;  162.669;  162.300;  183.571; 0.36907
 279.14;  179.963;  178.438;  204.050; 1.52487
 279.74;  178.901;  178.094;  211.006; 0.80651
 280.34;  163.923;  162.363;  207.562; 1.55994
 280.93;  200.527;  198.461;  243.101; 2.06539
 281.53;  158.556;  156.163;  204.471; 2.39231
 282.12;  182.956;  180.150;  242.247; 2.80667
 282.72;  173.777;  171.170;  237.668; 2.60696
 283.31;  181.122;  179.852;  225.194; 1.27018
 283.91;  161.158;  159.820;  189.204; 1.33757
 284.50;  188.921;  187.279;  209.412; 1.64201
 285.10;  198.416;  196.633;  220.160; 1.78292
 285.69;  158.658;  158.080;  181.279; 0.57826
 286.29;  184.424;  182.021;  205.333; 2.40271
 286.89;  172.674;  170.133;  193.509; 2.54075
 287.48;  177.843;  176.205;  198.821; 1.63785
 288.08;  193.929;  193.365;  213.941; 0.56441
 288.67;  174.488;  173.346;  211.533; 1.14211
 289.27;  175.149;  173.528;  238.460; 1.62097
 289.86;  173.710;  172.028;  224.048; 1.68206
 290.46;  157.833;  156.650;  182.953; 1.18290
 291.05;  173.179;  170.962;  190.854; 2.21744
 291.65;  167.825;  166.434;  186.464; 1.39068
 292.24;  194.016;  191.459;  217.061; 2.55749
 292.84;  177.273;  175.456;  198.640; 1.81766
 293.43;  182.361;  181.351;  201.754; 1.01053
 294.03;  179.900;  178.215;  197.677; 1.68476
 294.62;  187.189;  185.189;  205.562; 1.99956
 295.22;  168.271;  165.583;  187.902; 2.68771
 295.81;  182.221;  179.539;  227.659; 2.68175
 296.41;  170.912;  169.223;  618.639; 1.68912
 297.00;  185.992;  184.150;  879.669; 1.84146
 297.60;  175.289;  173.706;  448.744; 1.58285
 298.19;  180.404;  178.614;  234.456; 1.79002
 298.78;  176.211;  174.864;  208.659; 1.34655
 299.38;  162.747;  161.756;  184.146; 0.99111
 299.97;  190.129;  188.514;  207.510; 1.61444
 300.57;  177.365;  176.677;  193.837; 0.68805
 301.16;  135.485;  133.748;  152.734; 1.73669
 301.76;  173.342;  172.015;  237.006; 1.32711
 302.35;  176.120;  173.885;  322.268; 2.23517
 302.95;  194.918;  191.841;  300.113; 3.07718
 303.54;  152.915;  151.624;  188.905; 1.29074
 304.14;  156.158;  156.602;  182.352;-0.44466
 304.73;  190.360;  188.430;  213.586; 1.93019
 305.32;  179.806;  178.778;  200.159; 1.02819
 305.92;  159.279;  158.019;  180.386; 1.25965
 306.51;  156.174;  153.813;  174.896; 2.36059
 307.11;  174.649;  173.442;  194.701; 1.20722
 307.70;  155.357;  153.785;  174.665; 1.57201
 308.29;  157.532;  155.230;  177.264; 2.30157
 308.89;  165.135;  163.670;  185.946; 1.46517
 309.48;  125.738;  124.929;  149.281; 0.80901
 310.08;  166.655;  164.415;  192.005; 2.23950
 310.67;  165.076;  164.152;  194.927; 0.92466
 311.27;  152.030;  150.525;  202.344; 1.50500
 311.86;  158.143;  156.204;  434.649; 1.93896
 312.45;  163.660;  162.050; 1292.883; 1.60976
 313.05;  173.671;  172.450; 2220.983; 1.22077
 313.64;  168.196;  167.082; 1904.856; 1.11336
 314.23;  157.166;  156.245;  905.625; 0.92121
 314.83;  181.668;  180.583;  437.262; 1.08536
 315.42;  152.083;  150.195;  324.042; 1.88849
 316.02;  155.787;  155.471;  288.107; 0.31618
 316.61;  149.964;  148.681;  258.543; 1.28290
 317.20;  163.672;  163.095;  253.209; 0.57736
 317.80;  156.748;  155.435;  232.493; 1.31311
 318.39;  161.924;  159.932;  233.203; 1.99199
 318.98;  192.055;  190.871;  247.328; 1.18464
 319.58;  168.690;  165.811;  216.003; 2.87963
 320.17;  167.219;  165.908;  213.990; 1.31056
 320.76;  167.078;  165.569;  212.286; 1.50846
 321.36;  167.323;  165.360;  202.238; 1.96228
 321.95;  165.577;  163.546;  195.718; 2.03132
 322.55;  184.314;  182.524;  213.062; 1.79027
 323.14;  150.577;  147.977;  181.970; 2.60018
 323.73;  152.840;  151.773;  184.904; 1.06635
 324.33;  173.666;  171.757;  201.519; 1.90867
 324.92;  168.652;  166.605;  192.560; 2.04652
 325.51;  165.380;  163.988;  187.946; 1.39195
 326.10;  160.449;  158.567;  181.914; 1.88162
 326.70;  171.629;  170.823;  193.516; 0.80607
 327.29;  167.730;  165.754;  187.224; 1.97605
 327.88;  160.901;  160.484;  182.818; 0.41654
 328.48;  174.008;  172.900;  198.026; 1.10839
 329.07;  178.247;  176.931;  199.266; 1.31652
 329.66;  169.847;  167.338;  189.404; 2.50852
 330.26;  172.605;  170.315;  192.723; 2.28974
 330.85;  176.292;  175.245;  195.784; 1.04698
 331.44;  173.426;  171.748;  189.246; 1.67779
 332.04;  174.661;  173.970;  189.683; 0.69029
 332.63;  161.959;  160.135;  174.903; 1.82336
 333.22;  174.190;  172.764;  195.090; 1.42564
 333.81;  179.519;  178.451;  235.574; 1.06786
 334.41;  178.154;  176.567;  249.291; 1.58705
 335.00;  190.362;  187.943;  222.102; 2.41884
 335.59;  174.456;  171.635;  182.714; 2.82107
 336.18;  184.491;  183.361;  190.339; 1.13017
 336.78;  163.678;  162.601;  169.251; 1.07690
 337.37;  168.550;  167.347;  174.332; 1.20268
 337.96;  223.796;  223.507;  229.099; 0.28947
 338.55;  196.361;  194.528;  200.760; 1.83322
 339.15;  184.105;  182.290;  187.809; 1.81462
 339.74;  171.898;  170.423;  176.051; 1.47514
 340.33;  167.910;  166.761;  172.264; 1.14873
 340.92;  180.708;  179.833;  185.726; 0.87570
 341.52;  175.370;  174.017;  179.138; 1.35313
 342.11;  171.657;  170.075;  175.982; 1.58199
 342.70;  158.669;  157.067;  162.731; 1.60267
 343.29;  176.638;  174.449;  180.213; 2.18857
 343.89;  163.690;  160.703;  166.492; 2.98642
 344.48;  176.277;  174.727;  181.187; 1.54942
 345.07;  153.508;  151.632;  158.639; 1.87661
 345.66;  182.760;  180.273;  186.801; 2.48637
 346.25;  166.985;  166.511;  171.893; 0.47423
 346.85;  180.698;  177.788;  184.557; 2.91064
 347.44;  157.748;  156.673;  164.301; 1.07502
 348.03;  166.752;  165.808;  173.428; 0.94358
 348.62;  186.094;  185.926;  191.544; 0.16760
 349.21;  162.879;  161.691;  170.085; 1.18782
 349.81;  174.620;  172.419;  180.710; 2.20109
 350.40;  161.077;  159.988;  168.015; 1.08881
 350.99;  157.071;  155.664;  164.370; 1.40687
 351.58;  167.544;  164.716;  175.213; 2.82737
 352.17;  141.333;  141.008;  150.727; 0.32517
 352.77;  166.059;  165.438;  175.698; 0.62115
 353.36;  174.414;  172.920;  184.777; 1.49372
 353.95;  173.891;  173.301;  183.532; 0.58988
 354.54;  154.000;  153.863;  164.695; 0.13768
 355.13;  172.054;  170.783;  185.178; 1.27030
 355.72;  177.214;  174.317;  189.178; 2.89706
 356.32;  164.929;  164.231;  179.394; 0.69750
 356.91;  185.182;  183.800;  198.581; 1.38200
 357.50;  168.118;  166.814;  181.332; 1.30418
 358.09;  161.216;  161.077;  175.948; 0.13907
 358.68;  167.026;  164.655;  182.453; 2.37101
 359.27;  177.341;  175.654;  193.575; 1.68654
 359.86;  183.148;  181.288;  201.175; 1.86032
 360.46;  155.383;  154.076;  174.085; 1.30714
 361.05;  170.320;  168.579;  190.340; 1.74166
 361.64;  164.999;  162.541;  185.086; 2.45818
 362.23;  169.370;  166.555;  194.651; 2.81532
 362.82;  162.472;  160.226;  192.502; 2.24556
 363.41;  165.929;  164.669;  207.875; 1.25933
 364.00;  175.237;  172.156;  353.780; 3.08059
 364.59;  180.101;  178.716; 1486.313; 1.38477
 365.19;  159.275;  158.199; 2522.935; 1.07545
 365.78;  180.168;  179.113; 1660.725; 1.05444
 366.37;  165.531;  164.869;  731.492; 0.66204
 366.96;  166.069;  165.324;  397.552; 0.74497
 367.55;  179.011;  178.115;  244.913; 0.89651
 368.14;  176.078;  173.306;  214.336; 2.77190
 368.73;  184.278;  183.335;  218.072; 0.94340
 369.32;  186.109;  185.203;  217.455; 0.90575
 369.91;  178.196;  179.000;  209.941;-0.80401
 370.50;  188.381;  187.978;  219.302; 0.40262
 371.09;  171.219;  170.219;  202.742; 1.00018
 371.69;  166.564;  165.371;  198.902; 1.19290
 372.28;  162.229;  161.032;  193.164; 1.19702
 372.87;  195.767;  194.495;  229.204; 1.27175
 373.46;  163.463;  162.786;  198.627; 0.67644
 374.05;  183.672;  182.726;  218.578; 0.94558
 374.64;  183.283;  182.429;  220.031; 0.85469
 375.23;  175.115;  173.409;  210.680; 1.70535
 375.82;  193.935;  191.877;  231.757; 2.05780
 376.41;  188.155;  187.002;  227.311; 1.15275
 377.00;  187.172;  186.060;  229.443; 1.11167
 377.59;  178.153;  176.931;  220.777; 1.22150
 378.18;  179.968;  179.365;  222.855; 0.60307
 378.77;  178.426;  177.506;  221.661; 0.91975
 379.36;  168.393;  167.725;  215.856; 0.66831
 379.95;  190.033;  188.814;  236.560; 1.21887
 380.54;  182.646;  180.542;  233.047; 2.10412
 381.13;  195.574;  194.423;  245.947; 1.15109
 381.72;  163.981;  162.089;  217.145; 1.89185
 382.31;  196.848;  195.072;  250.810; 1.77585
 382.90;  179.055;  178.791;  235.621; 0.26348
 383.49;  226.041;  223.253;  281.132; 2.78849
 384.08;  166.718;  166.195;  226.846; 0.52277
 384.67;  192.489;  191.906;  252.682; 0.58353
 385.26;  186.895;  185.799;  250.489; 1.09654
 385.85;  171.502;  169.888;  233.966; 1.61390
 386.44;  185.394;  183.949;  250.247; 1.44559
 387.03;  195.577;  194.145;  264.478; 1.43225
 387.62;  159.789;  158.870;  228.198; 0.91840
 388.21;  193.302;  192.293;  263.020; 1.00947
 388.80;  176.501;  174.378;  246.997; 2.12261
 389.39;  180.168;  178.567;  253.348; 1.60104
 389.98;  178.083;  177.961;  255.753; 0.12232
 390.57;  177.243;  175.013;  255.437; 2.22995
 391.16;  185.361;  183.196;  261.714; 2.16497
 391.75;  194.352;  192.996;  269.716; 1.35617
 392.34;  194.623;  193.226;  270.151; 1.39693
 392.93;  189.609;  188.718;  268.909; 0.89122
 393.52;  164.981;  163.534;  245.097; 1.44712
 394.11;  168.719;  167.674;  250.044; 1.04532
 394.70;  208.125;  207.232;  289.266; 0.89349
 395.29;  187.852;  187.369;  271.052; 0.48282
 395.88;  174.896;  174.055;  257.652; 0.84059
 396.47;  192.807;  190.842;  273.788; 1.96557
 397.05;  177.272;  176.117;  258.016; 1.15554
 397.64;  190.764;  187.679;  272.155; 3.08527
 398.23;  180.825;  180.032;  265.215; 0.79310
 398.82;  182.992;  181.963;  265.767; 1.02910
 399.41;  172.438;  170.240;  255.098; 2.19866
 400.00;  168.607;  168.286;  252.393; 0.32124
 400.59;  189.780;  189.395;  273.690; 0.38524
 401.18;  184.901;  182.974;  269.091; 1.92692
 401.77;  177.744;  176.364;  262.585; 1.38071
 402.36;  191.117;  188.854;  281.319; 2.26361
 402.95;  174.264;  174.099;  273.673; 0.16476
 403.53;  190.830;  190.108;  388.007; 0.72206
 404.12;  177.998;  175.734; 1465.115; 2.26422
 404.71;  174.603;  173.658; 2583.144; 0.94527
 405.30;  156.031;  153.799; 1466.161; 2.23196
 405.89;  171.388;  169.976;  421.434; 1.41149
 406.48;  192.398;  190.485;  292.922; 1.91331
 407.07;  163.433;  161.832;  287.548; 1.60066
 407.66;  187.210;  186.426;  386.657; 0.78395
 408.24;  188.717;  185.980;  354.475; 2.73760
 408.83;  190.612;  188.277;  276.672; 2.33479
 409.42;  164.305;  163.692;  233.595; 0.61302
 410.01;  180.411;  179.442;  246.646; 0.96967
 410.60;  190.283;  190.751;  254.574;-0.46834
 411.19;  161.689;  158.964;  222.268; 2.72489
 411.78;  162.997;  159.580;  221.798; 3.41651
 412.36;  166.293;  166.294;  225.619;-0.00119
 412.95;  175.285;  174.622;  232.970; 0.66371
 413.54;  197.831;  196.434;  253.428; 1.39744
 414.13;  188.922;  188.494;  245.348; 0.42812
 414.72;  171.382;  170.550;  226.540; 0.83226
 415.31;  173.809;  172.091;  228.778; 1.71771
 415.89;  156.014;  154.371;  208.684; 1.64306
 416.48;  173.935;  172.903;  225.226; 1.03240
 417.07;  165.225;  163.674;  214.352; 1.55067
 417.66;  195.244;  193.063;  243.116; 2.18081
 418.25;  180.286;  179.507;  226.683; 0.77843
 418.83;  176.150;  174.184;  222.017; 1.96614
 419.42;  181.249;  178.844;  226.599; 2.40538
 420.01;  183.177;  182.921;  228.959; 0.25590
 420.60;  183.185;  179.992;  225.851; 3.19344
 421.19;  204.831;  202.697;  246.419; 2.13386
 421.77;  161.730;  159.119;  202.087; 2.61053
 422.36;  190.955;  190.120;  230.957; 0.83517
 422.95;  179.757;  177.825;  218.066; 1.93221
 423.54;  197.563;  196.331;  236.024; 1.23255
 424.12;  189.960;  186.228;  225.095; 3.73221
 424.71;  188.709;  186.793;  224.132; 1.91625
 425.30;  195.526;  191.971;  231.290; 3.55486
 425.89;  192.773;  191.839;  228.544; 0.93462
 426.48;  184.515;  182.641;  220.262; 1.87459
 427.06;  178.273;  176.712;  212.383; 1.56042
 427.65;  193.297;  190.214;  225.779; 3.08306
 428.24;  172.080;  170.157;  202.939; 1.92278
 428.83;  182.342;  179.758;  213.653; 2.58422
 429.41;  195.129;  191.093;  224.759; 4.03597
 430.00;  180.349;  177.556;  211.652; 2.79252
 430.59;  215.212;  210.549;  246.183; 4.66321
 431.17;  197.632;  195.419;  229.574; 2.21362
 431.76;  198.547;  194.669;  230.916; 3.87797
 432.35;  208.088;  203.964;  241.614; 4.12399
 432.94;  202.191;  199.092;  244.729; 3.09891
 433.52;  201.502;  197.763;  258.083; 3.73853
 434.11;  207.324;  204.189;  298.172; 3.13500
 434.70;  197.385;  193.774;  485.671; 3.61064
 435.29;  211.534;  208.933; 2805.055; 2.60085
 435.87;  205.717;  202.933; 5150.592; 2.78350
 436.46;  210.262;  206.346; 2722.762; 3.91626
 437.05;  183.740;  179.373;  540.545; 4.36725
 437.63;  199.945;  197.695;  274.666; 2.24984
 438.22;  205.054;  200.998;  248.964; 4.05624
 438.81;  217.190;  213.821;  253.576; 3.36869
 439.39;  190.988;  186.400;  219.764; 4.58782
 439.98;  207.320;  202.183;  232.521; 5.13685
 440.57;  203.770;  197.256;  225.617; 6.51395
 441.15;  202.806;  193.395;  219.055; 9.41062
 441.74;  216.051;  199.184;  220.966;16.86675
 442.33;  237.920;  206.115;  227.628;31.80569
 442.91;  249.253;  200.382;  222.203;48.87073
 443.50;  255.078;  192.745;  212.909;62.33274
 444.09;  256.711;  182.183;  202.260;74.52841
 444.67;  294.170;  216.214;  236.318;77.95535
 445.26;  270.963;  195.304;  213.821;75.65920
 445.85;  280.512;  211.454;  229.093;69.05774
 446.43;  258.963;  194.202;  213.253;64.76099
 447.02;  249.428;  195.692;  213.971;53.73577
 447.61;  219.848;  176.504;  193.601;43.34462
 448.19;  231.908;  202.091;  218.236;29.81712
 448.78;  211.117;  192.709;  208.027;18.40802
 449.36;  206.544;  196.322;  212.489;10.22162
 449.95;  195.243;  189.809;  205.296; 5.43418
 450.54;  190.115;  186.291;  202.068; 3.82342
 451.12;  211.730;  209.062;  224.440; 2.66773
 451.71;  176.619;  174.470;  190.035; 2.14854
 452.30;  201.822;  200.360;  214.755; 1.46159
 452.88;  192.706;  189.679;  204.263; 3.02630
 453.47;  177.239;  173.936;  188.234; 3.30235
 454.05;  185.199;  183.852;  198.324; 1.34749
 454.64;  197.804;  195.260;  209.186; 2.54350
 455.22;  211.465;  209.396;  222.695; 2.06904
 455.81;  176.290;  173.967;  186.806; 2.32293
 456.40;  212.563;  210.083;  221.415; 2.47992
 456.98;  185.240;  183.685;  196.557; 1.55516
 457.57;  203.461;  201.147;  214.096; 2.31453
 458.15;  209.702;  207.769;  220.194; 1.93327
 458.74;  196.994;  195.236;  205.667; 1.75774
 459.33;  201.847;  200.345;  211.567; 1.50177
 459.91;  201.096;  199.537;  209.606; 1.55834
 460.50;  200.841;  199.927;  210.124; 0.91328
 461.08;  193.643;  191.316;  201.549; 2.32659
 461.67;  195.764;  193.380;  203.915; 2.38411
 462.25;  199.514;  198.471;  208.184; 1.04276
 462.84;  169.140;  168.095;  177.443; 1.04483
 463.42;  187.592;  186.336;  197.335; 1.25594
 464.01;  190.573;  187.394;  200.154; 3.17881
 464.59;  200.976;  199.975;  209.773; 1.00045
 465.18;  188.900;  187.276;  196.631; 1.62433
 465.76;  193.639;  192.561;  202.098; 1.07777
 466.35;  194.355;  192.762;  202.134; 1.59304
 466.94;  205.684;  202.229;  211.128; 3.45549
 467.52;  212.409;  211.881;  220.402; 0.52814
 468.11;  178.892;  177.336;  185.451; 1.55568
 468.69;  173.234;  170.165;  178.777; 3.06906
 469.28;  163.749;  161.175;  169.570; 2.57423
 469.86;  199.027;  197.681;  204.795; 1.34554
 470.45;  193.297;  191.272;  198.769; 2.02447
 471.03;  173.896;  172.248;  179.928; 1.64804
 471.62;  185.460;  183.444;  189.847; 2.01592
 472.20;  189.515;  186.086;  194.726; 3.42922
 472.79;  224.919;  222.892;  228.835; 2.02714
 473.37;  188.622;  186.459;  192.908; 2.16276
 473.95;  187.014;  183.877;  192.703; 3.13633
 474.54;  147.609;  145.957;  152.162; 1.65219
 475.12;  213.241;  211.149;  218.210; 2.09211
 475.71;  194.891;  192.610;  199.441; 2.28099
 476.29;  199.036;  196.363;  203.200; 2.67321
 476.88;  174.777;  172.972;  178.540; 1.80516
 477.46;  175.519;  174.791;  179.356; 0.72809
 478.05;  183.698;  180.951;  186.478; 2.74748
 478.63;  185.572;  185.430;  191.034; 0.14176
 479.22;  166.826;  166.175;  170.278; 0.65148
 479.80;  192.432;  189.907;  195.363; 2.52481
 480.38;  187.208;  185.840;  191.085; 1.36803
 480.97;  171.338;  169.570;  174.897; 1.76819
 481.55;  181.550;  180.721;  186.205; 0.82945
 482.14;  204.582;  202.878;  207.401; 1.70434
 482.72;  176.883;  176.124;  182.124; 0.75922
 483.31;  175.290;  174.403;  177.897; 0.88724
 483.89;  180.734;  178.503;  182.403; 2.23159
 484.47;  179.163;  178.466;  182.354; 0.69724
 485.06;  169.249;  168.540;  172.672; 0.70886
 485.64;  192.624;  192.992;  195.664;-0.36790
 486.23;  197.845;  197.050;  200.398; 0.79532
 486.81;  191.892;  189.918;  194.241; 1.97386
 487.39;  160.914;  160.088;  164.354; 0.82589
 487.98;  173.346;  172.594;  176.507; 0.75269
 488.56;  203.353;  201.878;  205.349; 1.47535
 489.15;  172.542;  170.912;  176.203; 1.63057
 489.73;  177.096;  175.128;  179.606; 1.96856
 490.31;  175.810;  174.835;  179.772; 0.97477
 490.90;  176.284;  175.154;  182.159; 1.13037
 491.48;  179.811;  178.744;  192.437; 1.06754
 492.06;  194.419;  192.297;  201.679; 2.12192
 492.65;  165.401;  163.759;  168.469; 1.64191
 493.23;  153.640;  151.642;  155.351; 1.99801
 493.82;  186.688;  185.341;  188.929; 1.34701
 494.40;  152.318;  151.904;  154.592; 0.41462
 494.98;  170.978;  170.126;  173.304; 0.85225
 495.57;  151.697;  151.372;  154.804; 0.32521
 496.15;  150.350;  147.929;  152.224; 2.42103
 496.73;  164.424;  162.645;  165.567; 1.77970
 497.32;  186.341;  183.062;  185.987; 3.27894
 497.90;  182.021;  182.221;  184.261;-0.19941
 498.48;  159.023;  158.959;  161.229; 0.06389
 499.07;  166.369;  164.865;  167.574; 1.50330
 499.65;  184.620;  182.334;  185.883; 2.28558
 500.23;  150.022;  148.420;  150.126; 1.60202
 500.82;  162.132;  161.391;  163.825; 0.74045
 501.40;  165.493;  163.786;  166.053; 1.70722
 501.98;  177.778;  176.743;  178.435; 1.03568
 502.56;  191.493;  190.659;  192.690; 0.83353
 503.15;  190.874;  189.957;  191.639; 0.91657
 503.73;  174.364;  174.199;  175.410; 0.16525
 504.31;  176.970;  176.273;  178.659; 0.69666
 504.90;  185.182;  183.849;  186.738; 1.33256
 505.48;  199.305;  197.861;  199.199; 1.44380
 506.06;  183.575;  182.214;  184.710; 1.36090
 506.64;  170.263;  167.755;  170.026; 2.50866
 507.23;  176.807;  174.493;  176.401; 2.31330
 507.81;  187.268;  185.624;  188.977; 1.64374
 508.39;  175.551;  174.552;  176.174; 0.99904
 508.97;  184.239;  182.149;  185.047; 2.08957
 509.56;  193.252;  193.061;  194.375; 0.19156
 510.14;  159.692;  158.441;  161.241; 1.25083
 510.72;  176.687;  176.314;  177.478; 0.37315
 511.30;  186.879;  185.663;  186.041; 1.21585
 511.89;  184.809;  183.962;  185.565; 0.84630
 512.47;  180.961;  178.887;  181.031; 2.07354
 513.05;  176.173;  174.809;  177.585; 1.36366
 513.63;  176.923;  175.330;  177.868; 1.59332
 514.22;  188.293;  186.419;  189.266; 1.87462
 514.80;  186.739;  187.149;  188.139;-0.41039
 515.38;  177.067;  176.359;  179.039; 0.70823
 515.96;  200.373;  198.646;  200.259; 1.72710
 516.55;  172.947;  171.662;  172.391; 1.28502
 517.13;  183.554;  181.301;  186.021; 2.25331
 517.71;  167.434;  167.765;  169.247;-0.33095
 518.29;  170.041;  166.993;  170.914; 3.04816
 518.87;  180.154;  180.043;  182.674; 0.11172
 519.46;  173.225;  171.588;  174.753; 1.63690
 520.04;  177.201;  174.477;  177.625; 2.72375
 520.62;  166.480;  165.577;  166.467; 0.90251
 521.20;  162.293;  161.544;  162.686; 0.74837
 521.78;  178.733;  177.077;  180.553; 1.65529
 522.36;  174.784;  173.507;  175.982; 1.27715
 522.95;  176.004;  173.525;  177.197; 2.47887
 523.53;  161.835;  160.559;  164.834; 1.27671
 524.11;  175.369;  172.830;  176.760; 2.53888
 524.69;  169.900;  168.486;  170.408; 1.41400
 525.27;  171.920;  170.764;  173.546; 1.15593
 525.85;  181.397;  179.811;  182.985; 1.58623
 526.44;  181.601;  180.926;  182.487; 0.67490
 527.02;  190.744;  190.051;  192.145; 0.69302
 527.60;  183.823;  182.817;  184.817; 1.00535
 528.18;  166.771;  164.163;  168.352; 2.60747
 528.76;  196.451;  195.064;  197.754; 1.38632
 529.34;  179.886;  178.814;  182.904; 1.07200
 529.92;  198.092;  195.851;  199.070; 2.24117
 530.51;  186.893;  185.190;  189.082; 1.70333
 531.09;  177.930;  177.524;  180.559; 0.40614
 531.67;  172.356;  171.716;  176.286; 0.63965
 532.25;  195.488;  193.898;  198.863; 1.58977
 532.83;  195.513;  193.453;  200.968; 2.05939
 533.41;  172.073;  170.702;  175.342; 1.37106
 533.99;  196.023;  194.779;  200.241; 1.24362
 534.57;  215.545;  214.377;  219.337; 1.16805
 535.15;  177.194;  175.647;  181.714; 1.54765
 535.74;  171.158;  169.958;  177.698; 1.20026
 536.32;  176.642;  176.294;  183.533; 0.34783
 536.90;  169.894;  168.087;  173.158; 1.80738
 537.48;  183.531;  181.900;  186.764; 1.63125
 538.06;  201.256;  199.959;  204.852; 1.29697
 538.64;  187.247;  185.566;  193.302; 1.68037
 539.22;  178.721;  177.351;  184.206; 1.37008
 539.80;  186.006;  183.048;  190.142; 2.95783
 540.38;  199.585;  198.265;  205.750; 1.32034
 540.96;  168.457;  167.682;  176.155; 0.77492
 541.54;  175.665;  173.804;  183.672; 1.86057
 542.12;  218.598;  216.864;  228.946; 1.73408
 542.70;  163.497;  161.903;  178.319; 1.59395
 543.28;  183.261;  182.019;  202.682; 1.24138
 543.86;  177.811;  174.277;  204.103; 3.53425
 544.44;  228.454;  226.892;  278.849; 1.56200
 545.02;  195.932;  194.464;  518.343; 1.46859
 545.61;  183.325;  183.184; 3429.565; 0.14069
 546.19;  188.699;  186.751; 4874.079; 1.94770
 546.77;  182.585;  181.234; 1764.281; 1.35088
 547.35;  215.111;  213.513;  398.729; 1.59837
 547.93;  190.420;  190.275;  238.837; 0.14569
 548.51;  194.626;  192.444;  217.970; 2.18222
 549.09;  202.046;  200.520;  218.477; 1.52561
 549.67;  202.300;  200.022;  211.654; 2.27770
 550.25;  183.359;  180.811;  191.700; 2.54786
 550.83;  206.086;  205.418;  213.583; 0.66837
 551.41;  193.467;  192.111;  198.861; 1.35597
 551.99;  192.839;  191.188;  196.932; 1.65121
 552.57;  192.292;  191.228;  197.915; 1.06336
 553.15;  211.612;  209.117;  214.893; 2.49559
 553.73;  171.940;  170.078;  174.930; 1.86156
 554.30;  203.542;  201.957;  206.191; 1.58485
 554.88;  188.846;  188.356;  191.836; 0.49008
 555.46;  197.106;  195.482;  201.328; 1.62409
 556.04;  191.190;  189.068;  193.265; 2.12199
 556.62;  213.922;  211.218;  215.762; 2.70383
 557.20;  176.785;  175.190;  178.369; 1.59508
 557.78;  198.897;  197.203;  201.259; 1.69403
 558.36;  212.210;  211.720;  213.174; 0.48975
 558.94;  210.823;  208.744;  212.481; 2.07925
 559.52;  184.144;  182.546;  185.274; 1.59793
 560.10;  198.481;  197.712;  200.758; 0.76829
 560.68;  197.684;  197.598;  200.698; 0.08575
 561.26;  217.997;  216.549;  221.469; 1.44823
 561.84;  177.582;  176.186;  179.169; 1.39615
 562.42;  192.016;  190.872;  194.921; 1.14421
 563.00;  199.266;  196.236;  200.683; 3.02965
 563.58;  195.559;  193.715;  197.730; 1.84334
 564.15;  192.341;  191.132;  196.425; 1.20906
 564.73;  200.547;  199.274;  203.546; 1.27233
 565.31;  211.582;  210.517;  214.694; 1.06499
 565.89;  178.406;  176.152;  180.168; 2.25407
 566.47;  188.582;  186.376;  190.334; 2.20596
 567.05;  207.531;  207.090;  209.801; 0.44061
 567.63;  190.983;  190.231;  193.745; 0.75150
 568.21;  186.174;  184.467;  188.234; 1.70704
 568.79;  208.925;  207.780;  211.859; 1.14521
 569.36;  233.688;  231.222;  236.033; 2.46566
 569.94;  188.516;  185.240;  190.086; 3.27597
 570.52;  206.487;  204.336;  208.876; 2.15077
 571.10;  154.639;  153.109;  157.098; 1.52940
 571.68;  196.486;  196.182;  199.348; 0.30391
 572.26;  203.864;  202.530;  206.805; 1.33405
 572.84;  208.162;  206.460;  213.302; 1.70270
 573.41;  187.573;  186.632;  191.510; 0.94157
 573.99;  229.914;  227.859;  234.484; 2.05532
 574.57;  193.195;  191.082;  198.005; 2.11333
 575.15;  223.561;  223.101;  233.762; 0.46052
 575.73;  208.403;  206.807;  238.659; 1.59624
 576.31;  204.687;  203.764;  581.907; 0.92300
 576.88;  181.164;  180.000;  993.686; 1.16377
 577.46;  189.480;  187.217;  632.249; 2.26251
 578.04;  184.036;  182.140;  314.338; 1.89660
 578.62;  183.004;  182.141;  838.586; 0.86322
 579.20;  189.382;  187.289; 1006.280; 2.09372
 579.78;  197.040;  195.108;  438.584; 1.93189
 580.35;  195.735;  194.661;  224.094; 1.07419
 580.93;  185.163;  183.319;  193.932; 1.84395
 581.51;  199.679;  197.904;  203.406; 1.77539
 582.09;  178.388;  177.021;  181.770; 1.36689
 582.67;  180.421;  178.717;  181.880; 1.70345
 583.24;  182.709;  181.913;  185.282; 0.79622
 583.82;  185.846;  184.170;  188.714; 1.67654
 584.40;  184.150;  183.018;  186.158; 1.13199
 584.98;  181.635;  180.437;  183.929; 1.19748
 585.55;  194.394;  191.740;  197.391; 2.65401
 586.13;  169.587;  168.560;  170.347; 1.02731
 586.71;  191.746;  189.825;  193.534; 1.92085
 587.29;  184.433;  183.159;  185.393; 1.27418
 587.86;  187.100;  185.415;  189.128; 1.68530
 588.44;  150.369;  148.676;  151.278; 1.69288
 589.02;  203.030;  199.453;  202.846; 3.57703
 589.60;  180.279;  178.239;  180.686; 2.03986
 590.17;  192.484;  190.163;  192.297; 2.32067
 590.75;  169.745;  167.953;  169.301; 1.79143
 591.33;  169.431;  167.885;  171.119; 1.54630
 591.91;  179.604;  177.390;  180.134; 2.21377
 592.48;  174.862;  171.850;  174.727; 3.01222
 593.06;  190.899;  189.411;  191.277; 1.48854
 593.64;  185.562;  184.429;  186.123; 1.13356
 594.21;  171.813;  170.349;  171.966; 1.46361
 594.79;  183.678;  182.273;  184.253; 1.40504
 595.37;  186.886;  185.500;  186.634; 1.38641
 595.95;  168.992;  167.131;  169.210; 1.86084
 596.52;  174.526;  173.512;  174.385; 1.01429
 597.10;  180.366;  180.359;  181.543; 0.00718
 597.68;  166.227;  164.216;  167.048; 2.01101
 598.25;  190.598;  188.818;  191.102; 1.78029
 598.83;  167.305;  166.330;  168.230; 0.97539
 599.41;  181.778;  182.100;  181.930;-0.32171
 599.98;  207.171;  206.795;  207.470; 0.37601
 600.56;  196.531;  194.319;  196.510; 2.21141
 601.14;  180.303;  181.172;  182.296;-0.86876
 601.71;  185.377;  183.589;  185.581; 1.78863
 602.29;  171.117;  169.419;  171.919; 1.69812
 602.87;  195.355;  194.769;  196.942; 0.58643
 603.44;  189.553;  187.254;  189.970; 2.29909
 604.02;  181.964;  180.861;  183.106; 1.10255
 604.60;  201.809;  200.630;  201.173; 1.17919
 605.17;  208.858;  207.202;  208.291; 1.65607
 605.75;  197.958;  196.203;  198.867; 1.75517
 606.33;  190.325;  188.326;  190.642; 1.99906
 606.90;  210.483;  208.154;  211.394; 2.32890
 607.48;  198.475;  197.860;  199.325; 0.61464
 608.05;  179.002;  176.407;  178.524; 2.59440
 608.63;  185.767;  183.413;  186.371; 2.35333
 609.21;  176.508;  175.125;  176.448; 1.38339
 609.78;  204.664;  202.864;  205.182; 1.80014
 610.36;  192.851;  192.154;  191.741; 0.69652
 610.93;  197.089;  195.185;  196.171; 1.90440
 611.51;  178.601;  177.196;  179.469; 1.40459
 612.09;  207.079;  205.436;  207.395; 1.64323
 612.66;  190.685;  188.704;  190.107; 1.98049
 613.24;  202.889;  201.654;  203.003; 1.23513
 613.81;  207.989;  205.772;  206.200; 2.21646
 614.39;  202.550;  200.987;  203.399; 1.56299
 614.96;  218.390;  217.772;  217.412; 0.61794
 615.54;  203.415;  200.136;  201.843; 3.27963
 616.12;  210.501;  208.747;  209.965; 1.75394
 616.69;  167.685;  167.104;  169.197; 0.58074
 617.27;  197.168;  195.313;  196.719; 1.85521
 617.84;  179.102;  176.420;  178.833; 2.68157
 618.42;  213.354;  212.021;  211.207; 1.33238
 618.99;  196.390;  196.354;  195.870; 0.03549
 619.57;  215.380;  213.618;  214.600; 1.76182
 620.14;  203.582;  203.450;  204.552; 0.13201
 620.72;  184.071;  183.029;  183.325; 1.04134
 621.30;  208.242;  206.396;  206.934; 1.84590
 621.87;  215.304;  214.650;  212.652; 0.65443
 622.45;  205.358;  204.469;  204.167; 0.88894
 623.02;  178.512;  177.509;  178.127; 1.00243
 623.60;  187.989;  186.830;  189.356; 1.15946
 624.17;  195.304;  193.902;  194.886; 1.40183
 624.75;  204.807;  205.391;  205.327;-0.58336
 625.32;  192.986;  191.394;  192.308; 1.59180
 625.90;  197.646;  197.282;  198.133; 0.36440
 626.47;  209.973;  208.475;  210.485; 1.49853
 627.05;  181.047;  180.684;  179.759; 0.36314
 627.62;  198.357;  196.974;  196.459; 1.38360
 628.20;  219.374;  218.835;  218.249; 0.53879
 628.77;  212.257;  212.549;  211.877;-0.29202
 629.34;  232.658;  230.323;  231.819; 2.33445
 629.92;  188.805;  187.731;  187.490; 1.07435
 630.49;  214.467;  212.216;  213.266; 2.25070
 631.07;  189.260;  188.351;  188.294; 0.90921
 631.64;  189.473;  186.963;  187.824; 2.51014
 632.22;  232.653;  230.101;  230.912; 2.55230
 632.79;  207.220;  204.962;  206.039; 2.25805
 633.37;  214.098;  212.244;  212.526; 1.85456
 633.94;  208.567;  206.734;  206.488; 1.83272
 634.52;  201.539;  200.579;  199.758; 0.96026
 635.09;  216.362;  214.711;  215.253; 1.65163
 635.66;  181.569;  180.185;  181.904; 1.38424
 636.24;  196.125;  194.244;  196.282; 1.88063
 636.81;  237.172;  235.976;  236.037; 1.19593
 637.39;  220.148;  219.078;  219.425; 1.07010
 637.96;  216.092;  214.702;  214.710; 1.39011
 638.54;  216.405;  213.006;  214.657; 3.39941
 639.11;  192.444;  190.482;  192.193; 1.96152
 639.68;  218.621;  216.255;  218.132; 2.36586
 640.26;  202.194;  199.975;  200.830; 2.21941
 640.83;  204.022;  201.630;  202.731; 2.39243
 641.41;  197.458;  195.500;  195.288; 1.95845
 641.98;  201.818;  201.296;  202.609; 0.52247
 642.55;  181.820;  181.592;  181.128; 0.22849
 643.13;  199.267;  197.802;  198.066; 1.46551
 643.70;  218.097;  215.956;  217.215; 2.14153
 644.27;  203.747;  203.148;  203.618; 0.59955
 644.85;  195.977;  193.782;  194.159; 2.19557
 645.42;  202.457;  199.487;  199.911; 2.97059
 645.99;  191.242;  189.177;  190.061; 2.06561
 646.57;  196.107;  195.252;  196.463; 0.85563
 647.14;  203.520;  201.563;  201.200; 1.95765
 647.72;  181.143;  179.554;  180.416; 1.58968
 648.29;  193.167;  191.996;  192.608; 1.17170
 648.86;  218.246;  216.634;  216.710; 1.61272
 649.44;  184.613;  183.829;  183.041; 0.78374
 650.01;  193.757;  193.153;  193.457; 0.60376
 650.58;  203.469;  201.539;  202.430; 1.92978
 651.16;  201.646;  200.184;  200.440; 1.46180
 651.73;  191.021;  188.469;  187.736; 2.55182
 652.30;  206.574;  204.414;  207.431; 2.15984
 652.87;  191.754;  190.593;  192.315; 1.16086
 653.45;  214.868;  212.123;  212.966; 2.74488
 654.02;  189.040;  185.976;  187.624; 3.06390
 654.59;  197.429;  196.795;  196.423; 0.63393
 655.17;  202.959;  201.212;  201.261; 1.74695
 655.74;  186.098;  185.868;  184.871; 0.22997
 656.31;  199.320;  197.586;  197.131; 1.73399
 656.89;  201.600;  199.322;  199.572; 2.27801
 657.46;  207.349;  205.252;  205.138; 2.09703
 658.03;  213.191;  211.349;  212.823; 1.84205
 658.60;  195.444;  193.805;  194.048; 1.63907
 659.18;  209.717;  208.100;  210.082; 1.61709
 659.75;  193.846;  193.374;  194.466; 0.47211
 660.32;  213.632;  212.133;  212.587; 1.49913
 660.89;  193.957;  192.428;  193.109; 1.52915
 661.47;  212.687;  212.311;  212.436; 0.37618
 662.04;  213.817;  212.624;  212.492; 1.19320
 662.61;  196.373;  193.858;  195.400; 2.51522
 663.18;  202.892;  201.294;  202.315; 1.59824
 663.76;  183.574;  182.413;  181.848; 1.16126
 664.33;  208.892;  207.452;  208.590; 1.43928
 664.90;  203.519;  202.553;  203.257; 0.96530
 665.47;  198.528;  197.111;  197.715; 1.41632
 666.05;  190.885;  189.982;  190.679; 0.90234
 666.62;  226.106;  224.362;  225.637; 1.74336
 667.19;  192.197;  189.526;  192.394; 2.67038
 667.76;  186.357;  185.401;  189.455; 0.95540
 668.33;  189.800;  187.268;  191.776; 2.53143
 668.91;  182.825;  180.791;  180.984; 2.03345
 669.48;  195.693;  194.144;  195.022; 1.54847
 670.05;  183.179;  180.894;  181.436; 2.28449
 670.62;  203.665;  200.281;  200.111; 3.38351
 671.19;  198.780;  198.511;  199.468; 0.26853
 671.76;  206.284;  203.866;  204.944; 2.41755
 672.34;  189.029;  186.975;  187.849; 2.05357
 672.91;  197.192;  195.368;  196.127; 1.82359
 673.48;  188.436;  186.802;  188.041; 1.63361
 674.05;  211.847;  209.573;  210.493; 2.27363
 674.62;  207.525;  207.087;  207.026; 0.43765
 675.19;  199.918;  197.948;  199.583; 1.96968
 675.77;  203.791;  201.447;  203.236; 2.34370
 676.34;  177.485;  175.769;  176.251; 1.71572
 676.91;  194.354;  191.238;  192.447; 3.11574
 677.48;  197.266;  196.391;  196.000; 0.87476
 678.05;  195.025;  192.746;  194.424; 2.27878
 678.62;  206.335;  204.736;  206.241; 1.59880
 679.19;  198.371;  198.563;  199.488;-0.19218
 679.77;  192.783;  190.283;  191.219; 2.49984
 680.34;  161.400;  160.541;  160.329; 0.85886
 680.91;  189.818;  188.648;  189.018; 1.16988
 681.48;  193.262;  191.487;  192.089; 1.77490
 682.05;  199.030;  197.339;  198.306; 1.69093
 682.62;  169.565;  168.150;  167.647; 1.41495
 683.19;  188.046;  185.438;  187.455; 2.60797
 683.76;  197.315;  195.381;  195.830; 1.93399
 684.33;  199.957;  197.338;  199.173; 2.61901
 684.90;  178.686;  176.698;  176.952; 1.98803
 685.48;  180.616;  178.017;  180.005; 2.59905
 686.05;  176.944;  175.510;  177.615; 1.43407
 686.62;  196.466;  194.606;  197.183; 1.86009
 687.19;  177.281;  174.969;  176.679; 2.31211
 687.76;  188.028;  185.914;  187.707; 2.11413
 688.33;  191.062;  189.154;  190.216; 1.90815
 688.90;  188.368;  186.846;  187.084; 1.52217
 689.47;  149.724;  148.416;  148.484; 1.30820
 690.04;  175.967;  174.738;  177.908; 1.22922
 690.61;  184.196;  182.567;  191.835; 1.62924
 691.18;  168.241;  166.696;  172.036; 1.54526
 691.75;  209.811;  208.024;  209.598; 1.78728
 692.32;  192.238;  189.873;  191.508; 2.36530
 692.89;  209.671;  207.457;  209.013; 2.21432
 693.46;  193.137;  191.251;  194.434; 1.88634
 694.03;  185.263;  184.158;  185.955; 1.10536
 694.60;  196.788;  195.104;  198.362; 1.68438
 695.17;  190.467;  188.694;  198.056; 1.77340
 695.74;  178.496;  176.725;  295.952; 1.77142
 696.31;  187.127;  184.744;  526.357; 2.38345
 696.88;  196.342;  194.622;  436.680; 1.72047
 697.45;  179.936;  177.704;  217.769; 2.23249
 698.02;  165.335;  163.792;  171.529; 1.54351
 698.59;  167.189;  165.358;  171.783; 1.83153
 699.16;  172.704;  171.238;  173.378; 1.46655
 699.73;  185.985;  184.024;  185.243; 1.96157
 700.30;  173.918;  172.336;  173.389; 1.58259
 700.87;  192.564;  191.384;  192.910; 1.18061
 701.44;  190.261;  189.353;  190.847; 0.90863
 702.01;  185.210;  183.724;  185.005; 1.48665
 702.58;  207.793;  206.278;  206.841; 1.51567
 703.15;  171.710;  170.817;  172.191; 0.89370
 703.72;  193.645;  192.032;  192.738; 1.61372
 704.29;  167.186;  165.421;  167.346; 1.76474
 704.86;  199.110;  197.423;  199.260; 1.68676
 705.43;  189.984;  189.620;  191.919; 0.36378
 706.00;  186.396;  185.232;  222.417; 1.16380
 706.57;  180.265;  179.068;  262.230; 1.19682
 707.14;  174.225;  173.284;  221.456; 0.94084
 707.70;  211.732;  210.068;  218.764; 1.66386
 708.27;  180.331;  178.088;  179.997; 2.24288
 708.84;  178.295;  176.225;  178.009; 2.06990
 709.41;  160.449;  159.275;  159.808; 1.17392
 709.98;  204.366;  203.382;  204.521; 0.98395
 710.55;  180.848;  178.573;  181.279; 2.27497
 711.12;  199.953;  197.937;  198.254; 2.01599
 711.69;  195.906;  194.577;  194.719; 1.32901
 712.26;  194.826;  194.317;  194.505; 0.50903
 712.83;  209.695;  209.515;  210.775; 0.18005
 713.39;  196.558;  194.495;  195.453; 2.06307
 713.96;  206.148;  205.268;  212.738; 0.88009
 714.53;  193.192;  192.113;  206.613; 1.07911
 715.10;  193.083;  192.089;  202.143; 0.99413
 715.67;  174.739;  173.571;  175.208; 1.16815
 716.24;  194.891;  193.501;  193.437; 1.39017
 716.81;  212.071;  211.803;  211.046; 0.26820
 717.37;  195.696;  194.800;  195.090; 0.89622
 717.94;  202.463;  201.338;  202.676; 1.12524
 718.51;  203.414;  202.490;  203.290; 0.92426
 719.08;  186.634;  184.744;  185.101; 1.88928
 719.65;  212.682;  211.737;  211.135; 0.94430
 720.22;  206.717;  206.163;  206.097; 0.55332
 720.78;  201.003;  199.915;  198.790; 1.08734
 721.35;  186.487;  185.004;  186.655; 1.48236
 721.92;  214.722;  213.502;  214.834; 1.21938
 722.49;  203.672;  201.629;  202.874; 2.04240
 723.06;  199.284;  196.995;  198.919; 2.28842
 723.63;  170.149;  168.261;  168.342; 1.88744
 724.19;  211.315;  210.584;  210.839; 0.73047
 724.76;  189.393;  187.411;  189.063; 1.98149
 725.33;  198.663;  197.897;  199.054; 0.76551
 725.90;  217.505;  216.085;  219.058; 1.41953
 726.46;  200.027;  199.064;  233.585; 0.96255
 727.03;  217.968;  216.827;  315.146; 1.14057
 727.60;  160.476;  158.577;  231.534; 1.89859
 728.17;  202.740;  201.250;  215.136; 1.48961
 728.74;  208.392;  207.677;  209.799; 0.71463
 729.30;  191.645;  190.703;  191.518; 0.94165
 729.87;  192.054;  189.602;  192.096; 2.45167
 730.44;  215.991;  214.480;  216.598; 1.51069
 731.01;  208.230;  206.154;  208.547; 2.07572
 731.57;  189.186;  188.769;  190.066; 0.41674
 732.14;  186.477;  185.238;  186.899; 1.23876
 732.71;  190.335;  189.504;  189.752; 0.83078
 733.28;  227.558;  225.996;  228.133; 1.56180
 733.84;  185.840;  184.066;  185.858; 1.77382
 734.41;  184.636;  183.478;  184.891; 1.15784
 734.98;  206.530;  205.839;  207.761; 0.69086
 735.54;  222.644;  220.476;  221.853; 2.16788
 736.11;  190.368;  188.486;  191.575; 1.88190
 736.68;  183.702;  181.556;  186.264; 2.14592
 737.25;  194.156;  192.285;  210.177; 1.87094
 737.81;  205.407;  204.735;  317.032; 0.67197
 738.38;  198.185;  197.338;  364.691; 0.84699
 738.95;  215.013;  214.190;  282.287; 0.82301
 739.51;  209.620;  207.651;  217.624; 1.96903
 740.08;  204.328;  203.803;  207.208; 0.52505
 740.65;  187.296;  186.757;  188.889; 0.53907
 741.21;  202.813;  201.619;  203.778; 1.19409
 741.78;  205.904;  205.043;  208.168; 0.86111
 742.35;  202.895;  202.635;  203.225; 0.26013
 742.91;  218.712;  218.064;  219.878; 0.64815
 743.48;  202.146;  202.020;  203.324; 0.12617
 744.05;  197.683;  194.598;  196.786; 3.08519
 744.61;  204.429;  202.621;  204.593; 1.80822
 745.18;  186.988;  184.489;  187.125; 2.49924
 745.75;  199.757;  198.902;  201.497; 0.85526
 746.31;  229.406;  227.117;  230.891; 2.28928
 746.88;  198.832;  197.463;  200.522; 1.36930
 747.44;  200.179;  196.948;  201.675; 3.23132
 748.01;  227.237;  225.727;  231.329; 1.51034
 748.58;  207.711;  206.459;  213.293; 1.25236
 749.14;  196.585;  195.320;  226.526; 1.26538
 749.71;  194.241;  194.992;  451.231;-0.75060
 750.28;  201.946;  200.796;  683.607; 1.15042
 750.84;  204.062;  203.385;  549.218; 0.67744
 751.41;  190.440;  188.430;  400.206; 2.01047
 751.97;  202.524;  199.507;  287.792; 3.01749
 752.54;  195.006;  193.296;  213.887; 1.71051
 753.11;  192.528;  190.444;  198.839; 2.08453
 753.67;  201.192;  200.677;  204.969; 0.51555
 754.24;  193.883;  192.725;  196.031; 1.15857
 754.80;  220.824;  218.439;  221.209; 2.38559
 755.37;  178.778;  177.462;  180.823; 1.31661
 755.93;  213.791;  212.676;  215.748; 1.11563
 756.50;  203.587;  202.908;  204.941; 0.67965
 757.07;  208.960;  208.584;  211.182; 0.37667
 757.63;  182.715;  181.690;  183.805; 1.02569
 758.20;  186.103;  183.849;  187.333; 2.25472
 758.76;  194.600;  192.298;  194.976; 2.30174
 759.33;  165.301;  163.928;  168.252; 1.37276
 759.89;  193.579;  191.178;  196.370; 2.40078
 760.46;  195.566;  193.816;  198.611; 1.74980
 761.02;  207.550;  206.116;  212.126; 1.43382
 761.59;  188.613;  188.496;  198.304; 0.11684
 762.15;  205.779;  204.001;  247.196; 1.77786
 762.72;  192.420;  191.263;  649.960; 1.15688
 763.28;  181.734;  179.637; 1239.594; 2.09690
 763.85;  195.572;  194.628;  891.355; 0.94392
 764.41;  200.147;  198.561;  332.429; 1.58594
 764.98;  206.351;  204.439;  229.754; 1.91196
 765.54;  204.065;  201.436;  213.852; 2.62899
 766.11;  198.495;  198.048;  202.867; 0.44701
 766.67;  176.190;  174.369;  178.359; 1.82103
 767.24;  202.847;  200.485;  202.687; 2.36205
 767.80;  190.757;  188.137;  191.715; 2.62007
 768.37;  186.909;  185.599;  189.443; 1.31009
 768.93;  187.952;  185.871;  189.093; 2.08111
 769.50;  197.391;  195.132;  198.465; 2.25913
 770.06;  186.937;  185.446;  190.397; 1.49115
 770.63;  193.727;  192.135;  199.082; 1.59217
 771.19;  190.707;  189.325;  227.151; 1.38219
 771.75;  177.629;  175.993;  467.412; 1.63621
 772.32;  181.417;  179.042;  655.670; 2.37524
 772.88;  196.621;  194.500;  430.088; 2.12126
 773.45;  188.677;  186.976;  224.071; 1.70028
 774.01;  190.702;  189.634;  198.828; 1.06730
 774.58;  188.695;  187.539;  194.013; 1.15532
 775.14;  209.570;  208.743;  209.763; 0.82634
 775.70;  208.583;  206.499;  210.502; 2.08336
 776.27;  200.355;  199.065;  201.405; 1.28938
 776.83;  203.999;  202.232;  204.461; 1.76640
 777.40;  182.223;  181.002;  181.585; 1.22042
 777.96;  184.633;  182.512;  183.867; 2.12044
 778.52;  209.250;  207.355;  207.743; 1.89446
 779.09;  202.269;  200.702;  201.800; 1.56649
 779.65;  203.474;  201.821;  203.406; 1.65251
 780.22;  188.766;  186.609;  187.576; 2.15653
 780.78;  216.839;  214.842;  214.658; 1.99655
 781.34;  215.555;  214.054;  214.646; 1.50057
 781.91;  193.474;  190.683;  191.584; 2.79059
 782.47;  232.750;  231.725;  232.910; 1.02461
 783.03;  212.433;  211.298;  211.398; 1.13463
 783.60;  191.296;  190.005;  191.427; 1.29065
 784.16;  220.816;  219.009;  220.687; 1.80667
 784.72;  192.854;  190.809;  193.537; 2.04469
 785.29;  201.006;  199.705;  201.212; 1.30071
 785.85;  220.883;  220.183;  220.478; 0.69974
 786.41;  206.258;  205.674;  206.244; 0.58376
 786.98;  197.875;  195.635;  197.510; 2.23978
 787.54;  220.401;  217.953;  218.860; 2.44780
 788.10;  196.851;  196.271;  196.332; 0.57982
 788.67;  210.514;  209.696;  210.754; 0.81784
 789.23;  199.469;  197.981;  198.879; 1.48786
 789.79;  213.128;  210.325;  213.134; 2.80288
 790.36;  193.426;  191.447;  191.785; 1.97890
 790.92;  207.319;  205.343;  206.587; 1.97592
 791.48;  191.696;  190.716;  193.516; 0.97994
 792.05;  216.965;  216.545;  218.837; 0.41996
 792.61;  202.708;  201.726;  203.583; 0.98199
 793.17;  210.618;  209.030;  215.509; 1.58801
 793.73;  213.105;  211.029;  244.626; 2.07603
 794.30;  210.084;  208.320;  356.072; 1.76405
 794.86;  221.173;  220.019;  393.666; 1.15407
 795.42;  203.074;  201.154;  263.159; 1.92009
 795.98;  203.006;  199.960;  211.893; 3.04611
 796.55;  192.128;  191.526;  195.486; 0.60213
 797.11;  211.369;  209.581;  212.302; 1.78815
 797.67;  243.222;  242.028;  245.084; 1.19417
 798.23;  183.305;  181.340;  184.555; 1.96519
 798.80;  216.064;  215.475;  218.281; 0.58921
 799.36;  217.677;  217.310;  232.696; 0.36723
 799.92;  212.774;  210.674;  310.328; 2.10026
 800.48;  218.243;  217.297;  413.728; 0.94628
 801.05;  213.435;  212.953;  422.721; 0.48230
 801.61;  212.144;  211.410;  353.586; 0.73432
 802.17;  203.529;  202.600;  244.980; 0.92934
 802.73;  218.902;  217.123;  224.876; 1.77936
 803.29;  183.946;  184.312;  188.525;-0.36562
 803.86;  216.656;  214.539;  216.753; 2.11740
 804.42;  219.847;  218.292;  221.554; 1.55542
 804.98;  233.805;  233.557;  235.995; 0.24844
 805.54;  219.788;  217.794;  220.379; 1.99446
 806.10;  217.130;  215.070;  216.959; 2.06048
 806.66;  249.164;  247.272;  249.895; 1.89251
 807.23;  222.989;  220.999;  223.658; 1.99053
 807.79;  215.899;  214.425;  216.850; 1.47455
 808.35;  225.366;  224.428;  227.824; 0.93857
 808.91;  206.891;  203.629;  212.987; 3.26259
 809.47;  196.267;  194.215;  264.386; 2.05261
 810.03;  209.380;  207.620;  392.351; 1.76063
 810.60;  236.619;  235.782;  507.373; 0.83765
 811.16;  200.927;  200.082;  629.834; 0.84567
 811.72;  238.241;  237.304;  583.026; 0.93769
 812.28;  208.331;  207.712;  305.465; 0.61971
 812.84;  227.557;  227.567;  245.167;-0.01027
 813.40;  238.336;  238.954;  247.112;-0.61824
 813.96;  230.352;  228.043;  235.064; 2.30878
 814.52;  227.766;  227.148;  230.727; 0.61780
 815.09;  214.671;  214.099;  217.536; 0.57182
 815.65;  230.394;  228.457;  230.944; 1.93684
 816.21;  221.601;  221.312;  222.389; 0.28886
 816.77;  226.631;  224.432;  225.660; 2.19888
 817.33;  222.713;  221.692;  222.182; 1.02090
 817.89;  219.596;  218.744;  219.820; 0.85192
 818.45;  252.777;  251.049;  252.643; 1.72794
 819.01;  230.253;  228.098;  231.281; 2.15496
 819.57;  225.705;  224.864;  224.944; 0.84098
 820.13;  223.507;  222.154;  224.373; 1.35301
 820.69;  242.476;  241.931;  243.814; 0.54503
 821.25;  220.318;  219.341;  220.494; 0.97705
 821.82;  213.412;  210.393;  212.805; 3.01907
 822.38;  230.840;  229.679;  231.349; 1.16109
 822.94;  232.712;  230.592;  232.561; 2.12011
 823.50;  229.284;  228.000;  228.708; 1.28413
 824.06;  228.333;  226.497;  230.499; 1.83615
 824.62;  219.766;  218.567;  223.250; 1.19917
 825.18;  253.218;  251.837;  282.566; 1.38119
 825.74;  211.035;  208.962;  403.395; 2.07321
 826.30;  211.995;  208.177;  526.098; 3.81823
 826.86;  215.131;  213.238;  384.641; 1.89326
 827.42;  232.668;  232.026;  267.421; 0.64128
 827.98;  236.683;  235.467;  242.654; 1.21530
 828.54;  222.076;  220.713;  226.714; 1.36232
 829.10;  214.641;  213.448;  216.639; 1.19234
 829.66;  236.566;  235.338;  237.048; 1.22736
 830.22;  219.448;  217.629;  218.789; 1.81838
 830.78;  205.663;  204.590;  205.779; 1.07240
 831.34;  221.345;  218.723;  221.566; 2.62142
 831.90;  232.400;  231.867;  232.594; 0.53244
 832.46;  221.709;  220.778;  222.131; 0.93046
 833.02;  194.554;  192.352;  193.142; 2.20148
 833.58;  226.848;  224.886;  226.969; 1.96151
 834.14;  218.142;  216.980;  217.512; 1.16153
 834.70;  229.305;  228.933;  228.005; 0.37155
 835.25;  197.461;  196.040;  196.137; 1.42057
 835.81;  206.107;  204.502;  206.325; 1.60459
 836.37;  217.700;  215.627;  216.196; 2.07261
 836.93;  229.503;  228.608;  229.202; 0.89463
 837.49;  225.681;  224.590;  224.375; 1.09065
 838.05;  200.537;  199.422;  201.486; 1.11467
 838.61;  212.584;  209.687;  213.059; 2.89669
 839.17;  208.768;  207.258;  211.516; 1.50971
 839.73;  219.705;  217.003;  251.805; 2.70173
 840.29;  227.830;  225.061;  351.164; 2.76875
 840.85;  204.881;  202.626;  347.146; 2.25478
 841.41;  215.638;  213.673;  322.252; 1.96480
 841.97;  215.908;  213.104;  411.688; 2.80382
 842.52;  214.775;  213.883;  414.539; 0.89184
 843.08;  200.859;  199.353;  272.665; 1.50586
 843.64;  205.756;  205.320;  219.877; 0.43588
 844.20;  215.641;  214.437;  219.792; 1.20390
 844.76;  226.371;  224.481;  227.489; 1.88992
 845.32;  183.060;  181.574;  182.083; 1.48594
 845.88;  211.915;  210.570;  212.597; 1.34496
 846.44;  222.340;  220.229;  221.439; 2.11098
 846.99;  231.990;  231.162;  234.014; 0.82800
 847.55;  212.836;  210.301;  211.176; 2.53503
 848.11;  183.186;  181.391;  184.253; 1.79505
 848.67;  209.882;  208.151;  209.677; 1.73107
 849.23;  187.995;  186.091;  187.354; 1.90409
 849.79;  207.943;  206.661;  207.754; 1.28211
 850.34;  216.688;  213.568;  217.249; 3.12013
 850.90;  186.364;  186.282;  198.598; 0.08215
 851.46;  224.762;  223.285;  284.448; 1.47717
 852.02;  224.869;  222.700;  310.051; 2.16919
 852.58;  183.575;  182.035;  226.479; 1.54021
 853.13;  202.988;  202.097;  212.880; 0.89123
 853.69;  205.684;  204.621;  207.591; 1.06325
 854.25;  241.823;  239.574;  240.958; 2.24928
 854.81;  201.677;  201.336;  201.292; 0.34130
 855.37;  205.426;  203.339;  203.110; 2.08732
 855.92;  226.539;  224.481;  225.933; 2.05834
 856.48;  205.975;  204.465;  204.808; 1.51036
 857.04;  227.363;  224.955;  224.937; 2.40838
 857.60;  223.535;  222.493;  221.691; 1.04240
 858.16;  219.537;  217.010;  217.639; 2.52742
 858.71;  229.412;  228.949;  227.251; 0.46344
 859.27;  211.577;  209.793;  210.295; 1.78446
 859.83;  210.554;  209.726;  211.887; 0.82848
 860.39;  208.473;  206.651;  207.988; 1.82250
 860.94;  208.833;  208.686;  208.898; 0.14753
 861.50;  202.522;  201.573;  202.645; 0.94955
 862.06;  218.106;  216.401;  216.264; 1.70557
 862.61;  216.185;  215.224;  216.371; 0.96159
 863.17;  189.584;  186.584;  187.515; 3.00061
 863.73;  223.400;  222.909;  223.272; 0.49163
 864.29;  212.374;  211.539;  211.240; 0.83565
 864.84;  220.548;  219.288;  219.672; 1.26067
 865.40;  220.011;  218.929;  219.038; 1.08269
 865.96;  205.062;  204.142;  208.804; 0.92071
 866.51;  211.183;  210.481;  222.897; 0.70173
 867.07;  221.196;  219.905;  228.737; 1.29075
 867.63;  235.517;  233.976;  236.493; 1.54078
 868.18;  230.441;  228.459;  229.520; 1.98180
 868.74;  230.549;  230.929;  230.043;-0.38018
 869.30;  214.788;  213.394;  213.752; 1.39384
 869.86;  201.657;  199.934;  201.508; 1.72286
 870.41;  237.923;  237.689;  237.917; 0.23388
 870.97;  211.424;  209.778;  209.444; 1.64590
 871.52;  214.139;  212.214;  212.542; 1.92492
 872.08;  235.132;  233.536;  235.584; 1.59594
 872.64;  218.504;  218.116;  218.988; 0.38796
 873.19;  197.315;  194.531;  195.874; 2.78398
 873.75;  209.455;  208.787;  209.072; 0.66800
 874.31;  204.072;  203.068;  203.565; 1.00403
 874.86;  227.611;  225.968;  226.270; 1.64303
 875.42;  238.175;  236.797;  237.359; 1.37803
 875.98;  219.885;  217.102;  218.238; 2.78303
 876.53;  219.272;  217.915;  218.441; 1.35703
 877.09;  237.511;  235.408;  237.172; 2.10303
 877.64;  220.788;  218.756;  219.847; 2.03203
 878.20;  218.387;  215.559;  217.135; 2.82803
 878.76;  230.502;  230.206;  230.433; 0.29603
 879.31;  191.516;  190.849;  191.037; 0.66703
 879.87;  224.570;  223.753;  225.200; 0.81703
 880.42;  219.169;  217.732;  218.426; 1.43703
 880.98;  208.486;  206.360;  206.335; 2.12603
 881.54;  241.896;  241.020;  239.657; 0.87603
 882.09;  217.963;  216.433;  217.616; 1.53003
 882.65;  234.227;  233.714;  233.592; 0.51303
 883.20;  228.847;  227.058;  227.445; 1.78903
 883.76;  231.061;  228.708;  229.491; 2.35303
 884.31;  224.204;  222.743;  222.772; 1.46103
 884.87;  254.379;  252.548;  252.670; 1.83103
 885.42;  216.185;  214.335;  214.634; 1.85003
 885.98;  203.642;  202.289;  203.171; 1.35303
 886.53;  223.651;  223.002;  221.606; 0.64903
 887.09;  235.845;  232.955;  233.277; 2.89003
 887.65;  226.439;  224.710;  227.075; 1.72903
 888.20;  221.638;  220.916;  219.081; 0.72203
 888.76;  217.670;  216.685;  216.553; 0.98503
 889.31;  228.249;  227.103;  227.063; 1.14603
 889.87;  229.132;  226.996;  226.933; 2.13603
 890.42;  219.038;  218.058;  219.404; 0.98003
 890.98;  225.792;  223.814;  224.217; 1.97803
 891.53;  199.485;  198.607;  198.956; 0.87803
 892.09;  235.262;  234.420;  233.343; 0.84203
 892.64;  218.512;  216.970;  217.915; 1.54203
 893.19;  222.465;  221.025;  221.488; 1.44003
 893.75;  207.837;  206.427;  206.559; 1.41003
 894.30;  237.981;  234.563;  236.042; 3.41803
 894.86;  205.838;  204.328;  205.145; 1.51003
 895.41;  243.650;  242.056;  242.484; 1.59403
 895.97;  208.505;  206.681;  207.451; 1.82403
 896.52;  244.026;  242.153;  244.098; 1.87303
 897.08;  227.335;  226.264;  227.097; 1.07103
 897.63;  241.691;  240.613;  242.463; 1.07803
 898.19;  224.035;  222.486;  221.941; 1.54903
 898.74;  244.755;  242.666;  241.964; 2.08903
 899.29;  242.319;  240.616;  241.423; 1.70303
 899.85;  217.114;  216.887;  217.840; 0.22703
 900.40;  225.086;  223.436;  224.623; 1.65003
 900.96;  227.102;  225.042;  224.386; 2.06003
 901.51;  223.295;  221.581;  221.344; 1.71403
 902.06;  225.337;  225.004;  225.298; 0.33303
 902.62;  237.455;  235.807;  235.915; 1.64803
 903.17;  231.396;  231.255;  232.176; 0.14103
 903.73;  235.110;  233.905;  235.707; 1.20503
 904.28;  217.487;  217.238;  216.385; 0.24903
 904.83;  250.761;  249.294;  249.126; 1.46703
 905.39;  203.815;  201.924;  202.872; 1.89103
 905.94;  231.422;  229.093;  229.504; 2.32903
 906.50;  240.140;  239.345;  239.323; 0.79503
 907.05;  220.546;  218.611;  219.363; 1.93503
 907.60;  237.950;  234.657;  236.963; 3.29303
 908.16;  227.147;  226.200;  228.085; 0.94703
 908.71;  229.577;  228.325;  229.913; 1.25203
 909.26;  232.612;  232.342;  233.397; 0.27003
 909.82;  226.289;  224.382;  227.376; 1.90703
 910.37;  229.660;  228.045;  235.399; 1.61503
 910.92;  239.855;  238.386;  281.745; 1.46903
 911.48;  238.369;  236.515;  481.890; 1.85403
 912.03;  210.674;  210.011;  613.633; 0.66303
 912.58;  229.144;  227.942;  476.373; 1.20203
 913.14;  233.566;  231.486;  301.799; 2.08003
 913.69;  255.668;  255.066;  269.488; 0.60203
 914.24;  215.914;  215.870;  222.219; 0.04403
 914.79;  216.462;  214.815;  218.365; 1.64703
 915.35;  232.846;  231.504;  234.392; 1.34203
 915.90;  239.146;  237.419;  240.487; 1.72703
 916.45;  218.539;  217.425;  218.208; 1.11403
 917.01;  233.848;  232.757;  232.894; 1.09103
 917.56;  228.356;  226.029;  227.311; 2.32703
 918.11;  226.956;  225.175;  226.003; 1.78103
 918.66;  222.412;  220.165;  220.789; 2.24703
 919.22;  237.498;  234.901;  236.207; 2.59703
 919.77;  220.931;  218.968;  221.133; 1.96303
 920.32;  223.486;  223.321;  224.244; 0.16503
 920.87;  230.738;  229.100;  232.864; 1.63803
 921.43;  222.343;  221.571;  250.486; 0.77203
 921.98;  210.687;  208.602;  276.799; 2.08503
 922.53;  215.384;  213.204;  271.522; 2.18003
 923.08;  225.496;  224.258;  245.586; 1.23803
 923.64;  227.211;  225.687;  232.794; 1.52403
 924.19;  229.937;  228.536;  231.064; 1.40103
 924.74;  210.500;  208.642;  211.372; 1.85803
 925.29;  260.470;  257.927;  260.667; 2.54303
 925.84;  234.203;  233.893;  234.899; 0.31003
 926.40;  214.365;  212.756;  212.506; 1.60903
 926.95;  215.793;  214.443;  214.402; 1.35003
 927.50;  215.603;  214.218;  216.696; 1.38503
 928.05;  227.895;  226.003;  226.066; 1.89203
 928.60;  212.352;  212.368;  210.903;-0.01597
 929.15;  229.981;  227.681;  228.948; 2.30003
 929.71;  240.735;  238.590;  238.862; 2.14503
 930.26;  220.826;  219.878;  220.145; 0.94803
 930.81;  227.385;  225.770;  226.373; 1.61503
 931.36;  235.841;  235.038;  235.832; 0.80303
 931.91;  242.796;  240.767;  241.662; 2.02903
 932.46;  239.645;  237.054;  237.655; 2.59103
 933.02;  225.835;  225.029;  224.869; 0.80603
 933.57;  212.025;  212.139;  211.497;-0.11397
 934.12;  214.508;  211.871;  212.075; 2.63703
 934.67;  230.375;  227.530;  232.336; 2.84503
 935.22;  221.498;  220.625;  225.680; 0.87303
 935.77;  247.421;  247.085;  247.265; 0.33603
 936.32;  233.614;  231.228;  233.242; 2.38603
 936.87;  236.101;  233.324;  234.404; 2.77703
 937.42;  229.834;  229.450;  230.149; 0.38403
 937.98;  210.871;  208.921;  211.733; 1.95003
 938.53;  223.638;  220.828;  221.566; 2.81003
 939.08;  213.684;  211.982;  213.091; 1.70203
 939.63;  235.253;  233.619;  233.627; 1.63403
 940.18;  245.539;  244.439;  245.398; 1.10003
 940.73;  223.668;  224.569;  224.525;-0.90097
 941.28;  210.147;  209.417;  210.218; 0.73003
 941.83;  219.709;  217.913;  218.300; 1.79603
 942.38;  214.255;  212.660;  212.832; 1.59503
 942.93;  229.327;  229.033;  228.633; 0.29403
 943.48;  228.301;  226.126;  227.078; 2.17503
 944.03;  212.479;  210.595;  210.439; 1.88403
 944.58;  217.949;  216.394;  217.194; 1.55503
 945.13;  214.027;  212.115;  212.387; 1.91203
 945.68;  206.354;  205.026;  206.217; 1.32803
 946.23;  215.898;  214.309;  213.880; 1.58903
 946.79;  215.697;  213.919;  214.171; 1.77803
 947.34;  234.674;  232.970;  232.911; 1.70403
 947.89;  240.744;  238.454;  238.836; 2.29003
 948.44;  219.114;  218.034;  219.284; 1.08003
 948.99;  217.964;  216.337;  216.924; 1.62703
 949.54;  233.520;  231.747;  230.186; 1.77303
 950.09;  216.780;  215.315;  216.219; 1.46503
 950.64;  215.618;  214.496;  213.164; 1.12203
 951.19;  197.303;  194.598;  195.816; 2.70503
 951.73;  189.471;  187.468;  187.208; 2.00303
 952.28;  231.082;  230.153;  230.870; 0.92903
 952.83;  224.539;  223.607;  222.726; 0.93203
 953.38;  243.011;  243.162;  243.581;-0.15097
 953.93;  219.063;  217.030;  216.650; 2.03303
 954.48;  219.468;  217.431;  219.371; 2.03703
 955.03;  223.495;  222.576;  222.641; 0.91903
 955.58;  221.897;  220.979;  220.638; 0.91803
 956.13;  193.303;  192.731;  192.119; 0.57203
 956.68;  204.939;  203.079;  204.813; 1.86003
 957.23;  192.333;  191.531;  190.369; 0.80203
 957.78;  206.436;  203.775;  204.342; 2.66103
 958.33;  185.862;  183.503;  184.908; 2.35903
 958.88;  214.369;  212.988;  214.074; 1.38103
 959.43;  221.593;  220.040;  220.660; 1.55303
 959.98;  207.569;  206.625;  207.110; 0.94403
 960.53;  237.158;  234.353;  235.735; 2.80503
 961.07;  207.551;  205.899;  205.337; 1.65203
 961.62;  251.321;  249.831;  250.070; 1.49003
 962.17;  213.853;  212.941;  213.949; 0.91203
 962.72;  218.745;  216.711;  217.978; 2.03403
 963.27;  218.726;  218.041;  218.272; 0.68503
 963.82;  206.906;  206.243;  207.269; 0.66303
 964.37;  229.299;  227.685;  240.124; 1.61403
 964.92;  210.109;  208.531;  264.450; 1.57803
 965.46;  199.245;  196.744;  280.889; 2.50103
 966.01;  211.256;  209.771;  262.804; 1.48503
 966.56;  224.250;  222.364;  237.515; 1.88603
 967.11;  227.385;  224.708;  227.550; 2.67703
 967.66;  212.645;  211.547;  213.586; 1.09803
 968.21;  208.736;  207.716;  208.194; 1.02003
 968.75;  225.733;  225.245;  224.204; 0.48803
 969.30;  218.921;  216.954;  216.833; 1.96703
 969.85;  235.616;  234.176;  233.361; 1.44003
 970.40;  224.448;  222.700;  220.821; 1.74803
 970.95;  227.763;  226.417;  226.071; 1.34603
 971.50;  224.162;  223.073;  223.994; 1.08903
 972.04;  224.756;  223.538;  225.460; 1.21803
 972.59;  235.332;  234.311;  233.089; 1.02103
 973.14;  228.439;  226.251;  226.225; 2.18803
 973.69;  237.057;  235.170;  235.642; 1.88703
 974.24;  221.018;  219.690;  220.206; 1.32803
 974.78;  217.445;  216.344;  215.873; 1.10103
 975.33;  246.248;  245.614;  245.834; 0.63403
 975.88;  231.658;  229.418;  229.422; 2.24003
 976.43;  229.707;  227.936;  227.200; 1.77103
 976.97;  222.372;  221.542;  220.970; 0.83003
 977.52;  211.550;  210.631;  212.176; 0.91903
 978.07;  256.682;  256.094;  261.140; 0.58803
 978.62;  248.226;  245.501;  249.999; 2.72503
 979.16;  242.951;  243.324;  245.899;-0.37297
 979.71;  211.922;  210.246;  211.338; 1.67603
 980.26;  234.091;  232.162;  233.353; 1.92903
 980.81;  233.409;  231.327;  230.718; 2.08203
 981.35;  255.873;  254.473;  254.809; 1.40003
 981.90;  244.433;  243.010;  241.517; 1.42303
 982.45;  242.284;  240.057;  240.405; 2.22703
 982.99;  244.157;  241.941;  242.664; 2.21603
 983.54;  241.743;  239.979;  239.293; 1.76403
 984.09;  232.361;  230.442;  231.355; 1.91903
 984.63;  229.866;  228.876;  228.448; 0.99003
 985.18;  242.950;  242.114;  242.377; 0.83603
 985.73;  237.382;  235.992;  235.860; 1.39003
 986.27;  226.023;  225.317;  224.967; 0.70603
 986.82;  234.303;  232.007;  233.190; 2.29603
 987.37;  248.610;  246.398;  246.808; 2.21203
 987.91;  238.523;  236.684;  236.652; 1.83903
 988.46;  247.877;  244.922;  247.721; 2.95503
 989.01;  241.645;  239.168;  237.572; 2.47703
 989.55;  241.927;  240.845;  241.214; 1.08203
 990.10;  250.388;  247.882;  248.030; 2.50603
 990.65;  265.363;  264.063;  262.831; 1.30003
 991.19;  236.690;  236.583;  236.217; 0.10703
 991.74;  255.663;  255.060;  254.016; 0.60303
 992.29;  244.920;  242.377;  243.190; 2.54303
 992.83;  256.263;  255.509;  254.085; 0.75403
 993.38;  250.086;  248.869;  247.359; 1.21703
 993.92;  229.879;  228.304;  226.472; 1.57503
 994.47;  218.228;  216.438;  216.807; 1.79003
 995.02;  238.123;  236.276;  236.735; 1.84703
 995.56;  257.595;  256.141;  256.692; 1.45403
 996.11;  247.480;  247.013;  246.882; 0.46703
 996.65;  248.560;  247.453;  247.876; 1.10703
 997.20;  242.364;  240.169;  240.294; 2.19503
 997.75;  240.812;  239.996;  239.437; 0.81603
 998.29;  217.246;  216.003;  216.133; 1.24303
 998.84;  246.426;  244.933;  245.329; 1.49303
 999.38;  247.499;  246.476;  244.812; 1.02303
 999.93;  263.189;  261.243;  261.675; 1.94603
1000.47;  260.769;  260.203;  260.831; 0.56602
1001.02;  255.170;  254.354;  253.386; 0.81603
1001.56;  241.355;  240.741;  239.780; 0.61403
1002.11;  232.536;  231.050;  230.445; 1.48603
1002.65;  224.797;  224.299;  223.243; 0.49803
1003.20;  234.222;  232.482;  231.881; 1.74003
1003.75;  267.712;  265.828;  266.036; 1.88403
1004.29;  235.406;  234.636;  233.303; 0.77003
1004.84;  221.374;  219.628;  220.546; 1.74603
1005.38;  224.180;  222.757;  222.859; 1.42303
1005.93;  244.360;  242.295;  241.364; 2.06503
1006.47;  222.740;  220.477;  220.692; 2.26303
1007.02;  228.038;  227.889;  227.662; 0.14903
1007.56;  244.325;  243.707;  242.798; 0.61803
1008.11;  251.247;  250.297;  249.411; 0.95003
1008.65;  209.046;  207.523;  207.079; 1.52303
1009.19;  237.180;  235.898;  236.390; 1.28203
1009.74;  232.429;  230.551;  231.223; 1.87803
1010.28;  235.049;  233.466;  234.215; 1.58303
1010.83;  243.689;  242.042;  242.437; 1.64703
1011.37;  236.028;  235.158;  235.037; 0.87003
1011.92;  234.810;  233.780;  235.208; 1.03003
1012.46;  229.124;  227.256;  230.410; 1.86803
1013.01;  263.792;  262.076;  282.128; 1.71603
1013.55;  234.233;  232.732;  261.377; 1.50103
1014.09;  229.530;  228.539;  247.080; 0.99103
1014.64;  228.888;  227.787;  235.199; 1.10103
1015.18;  226.502;  225.081;  226.875; 1.42103
1015.73;  221.145;  220.280;  221.345; 0.86503
1016.27;  241.240;  240.147;  239.850; 1.09303
1016.82;  234.427;  232.308;  232.899; 2.11903
1017.36;  225.979;  224.141;  224.463; 1.83803
1017.90;  217.271;  214.151;  214.821; 3.12003
1018.45;  211.449;  209.241;  209.010; 2.20803
1018.99;  213.413;  211.398;  213.271; 2.01503
1019.53;  202.174;  200.198;  199.948; 1.97603
1020.08;  228.104;  227.278;  227.485; 0.82603
1020.62;  230.153;  228.572;  229.827; 1.58103
1021.17;  233.850;  232.641;  232.392; 1.20903
1021.71;  234.365;  231.938;  232.866; 2.42703
1022.25;  241.576;  238.795;  239.904; 2.78103
1022.80;  215.654;  213.494;  214.907; 2.16003
1023.34;  212.658;  210.921;  211.512; 1.73703
1023.88;  226.794;  225.958;  224.103; 0.83603
1024.43;  230.762;  229.192;  229.391; 1.57003
1024.97;  234.913;  232.468;  233.233; 2.44503
1025.51;  214.166;  213.056;  213.395; 1.11003
1026.06;  230.195;  228.663;  227.836; 1.53203
1026.60;  234.989;  232.935;  233.723; 2.05403
1027.14;  247.016;  244.409;  244.366; 2.60703
1027.69;  235.304;  233.391;  232.097; 1.91303
1028.23;  229.931;  227.864;  228.253; 2.06703
1028.77;  213.454;  210.959;  212.300; 2.49503
1029.31;  226.095;  223.907;  224.128; 2.18803
1029.86;  219.750;  217.588;  216.083; 2.16203
1030.40;  263.817;  261.277;  262.077; 2.54003
1030.94;  233.747;  231.815;  232.446; 1.93203
1031.48;  242.566;  241.865;  240.883; 0.70103
1032.03;  229.878;  228.825;  227.501; 1.05303
1032.57;  231.939;  229.710;  229.752; 2.22903
1033.11;  226.873;  225.599;  224.720; 1.27403
1033.65;  217.010;  215.604;  213.877; 1.40603
1034.20;  236.598;  234.869;  235.433; 1.72903
1034.74;  234.187;  231.769;  231.019; 2.41803
1035.28;  232.682;  231.913;  231.832; 0.76903
1035.82;  210.143;  208.719;  209.377; 1.42403
1036.37;  224.641;  223.026;  221.872; 1.61503
1036.91;  248.562;  247.037;  248.405; 1.52503
1037.45;  240.009;  238.466;  237.398; 1.54303
1037.99;  229.882;  228.249;  227.965; 1.63303
1038.53;  230.005;  228.503;  229.202; 1.50203
1039.08;  218.271;  217.063;  217.129; 1.20803
1039.62;  218.020;  217.190;  215.711; 0.83003
1040.16;  221.767;  221.639;  220.940; 0.12803
1040.70;  228.883;  227.786;  226.788; 1.09703
1041.24;  245.116;  243.354;  243.321; 1.76203
1041.79;  220.436;  217.552;  217.096; 2.88403
1042.33;  225.992;  224.346;  223.935; 1.64603
1042.87;  218.853;  217.206;  216.620; 1.64703
1043.41;  223.517;  222.501;  221.794; 1.01603
1043.95;  236.202;  234.598;  234.674; 1.60403
1044.49;  205.059;  203.225;  204.268; 1.83403
1045.04;  235.892;  233.232;  234.685; 2.66003
1045.58;  227.703;  225.819;  225.050; 1.88403
1046.12;  257.006;  254.707;  256.429; 2.29903
1046.66;  238.381;  236.566;  239.465; 1.81503
1047.20;  219.369;  218.107;  220.647; 1.26203
1047.74;  253.696;  252.960;  252.264; 0.73603
1048.28;  235.891;  233.803;  234.715; 2.08803
1048.82;  251.881;  249.718;  249.899; 2.16303
1049.36;  253.977;  252.411;  252.537; 1.56603
1049.91;  243.102;  240.165;  240.839; 2.93703
1050.45;  234.818;  233.614;  233.443; 1.20403
1050.99;  255.023;  253.961;  253.565; 1.06203
1051.53;  259.083;  258.279;  258.198; 0.80403
1052.07;  233.283;  231.776;  231.546; 1.50703
1052.61;  234.109;  232.081;  231.951; 2.02803
1053.15;  243.877;  243.212;  242.976; 0.66503
1053.69;  237.038;  235.231;  236.380; 1.80703
1054.23;  242.934;  240.856;  241.171; 2.07803
1054.77;  258.046;  256.236;  255.399; 1.81002
1055.31;  241.554;  239.527;  239.084; 2.02703
1055.85;  233.449;  231.508;  232.209; 1.94103
1056.39;  234.043;  231.911;  231.936; 2.13203
1056.93;  241.982;  240.977;  240.459; 1.00503
1057.47;  251.990;  251.819;  250.912; 0.17102
1058.01;  249.534;  247.962;  248.715; 1.57203
1058.55;  246.244;  245.288;  246.950; 0.95603
1059.09;  248.179;  246.810;  246.105; 1.36903
1059.63;  255.821;  254.581;  252.957; 1.24003
1060.17;  268.847;  267.383;  266.822; 1.46403
1060.71;  233.339;  231.281;  231.876; 2.05803
1061.25;  246.280;  243.365;  243.753; 2.91503
1061.79;  245.584;  244.794;  243.820; 0.79003
1062.33;  239.552;  237.078;  237.818; 2.47403
1062.87;  268.545;  267.830;  267.178; 0.71503
1063.41;  248.072;  246.600;  245.913; 1.47203
1063.95;  255.006;  253.288;  253.445; 1.71803
1064.49;  235.963;  235.054;  236.618; 0.90903
1065.03;  293.119;  291.317;  291.184; 1.80203
1065.57;  266.872;  264.609;  263.442; 2.26303
1066.11;  247.954;  247.101;  245.700; 0.85303
1066.65;  244.172;  243.172;  242.225; 1.00003
1067.19;  261.839;  260.238;  258.730; 1.60103
1067.73;  269.888;  268.166;  267.504; 1.72203
1068.27;  238.744;  236.331;  236.573; 2.41303
1068.81;  244.825;  243.212;  242.997; 1.61303
1069.35;  269.532;  267.789;  267.481; 1.74302
1069.89;  236.814;  235.643;  234.383; 1.17103
1070.43;  261.263;  259.949;  259.943; 1.31403
1070.96;  257.392;  256.385;  254.939; 1.00702
1071.50;  256.340;  254.423;  253.966; 1.91703
1072.04;  252.392;  250.627;  249.432; 1.76503
1072.58;  257.061;  256.361;  255.917; 0.70002
1073.12;  268.568;  267.410;  266.714; 1.15803
1073.66;  239.912;  238.047;  237.410; 1.86503
1074.20;  247.260;  246.415;  248.196; 0.84503
1074.74;  255.538;  253.679;  253.551; 1.85902
1075.27;  243.211;  243.478;  243.897;-0.26697
1075.81;  245.099;  244.072;  243.029; 1.02703
1076.35;  252.171;  250.500;  249.120; 1.67103
1076.89;  253.038;  252.503;  251.325; 0.53503
1077.43;  270.445;  269.825;  267.999; 0.62003
1077.97;  258.294;  256.349;  256.720; 1.94503
1078.50;  254.024;  252.629;  252.985; 1.39503
1079.04;  245.416;  244.649;  242.128; 0.76703
1079.58;  250.837;  249.365;  249.444; 1.47203
1080.12;  246.777;  245.001;  245.012; 1.77603
1080.66;  263.057;  261.188;  260.419; 1.86902
1081.20;  241.159;  239.507;  239.541; 1.65203
1081.73;  236.803;  233.600;  233.654; 3.20303
1082.27;  256.349;  254.179;  252.998; 2.17003
1082.81;  259.469;  258.626;  257.378; 0.84303
1083.35;  250.903;  249.198;  248.599; 1.70503
1083.88;  250.762;  248.672;  248.179; 2.09003
1084.42;  266.838;  264.464;  265.394; 2.37403
1084.96;  243.393;  243.203;  241.314; 0.19003
1085.50;  253.113;  250.098;  249.738; 3.01503
1086.04;  248.878;  246.902;  246.985; 1.97603
1086.57;  274.307;  271.733;  271.691; 2.57403
1087.11;  250.266;  249.627;  249.705; 0.63903
1087.65;  242.092;  240.219;  240.281; 1.87303
1088.19;  265.798;  265.083;  264.683; 0.71503
1088.72;  250.250;  249.367;  249.220; 0.88303
1089.26;  243.023;  241.925;  240.830; 1.09803
1089.80;  236.386;  235.339;  235.334; 1.04703
1090.33;  274.357;  273.404;  273.528; 0.95303
1090.87;  229.880;  228.116;  227.543; 1.76403
1091.41;  236.142;  234.206;  233.488; 1.93603
1091.95;  252.460;  251.324;  250.943; 1.13603
1092.48;  263.190;  261.837;  263.655; 1.35303
1093.02;  236.493;  236.268;  235.415; 0.22503
1093.56;  256.493;  255.327;  254.412; 1.16602
1094.09;  231.453;  230.063;  229.661; 1.39003
1094.63;  231.947;  231.309;  230.537; 0.63803
1095.17;  237.977;  237.088;  236.861; 0.88903
1095.70;  252.432;  250.927;  250.037; 1.50502
1096.24;  239.488;  238.468;  237.502; 1.02003
1096.78;  237.601;  235.585;  234.609; 2.01603
1097.31;  240.126;  237.272;  237.279; 2.85403
1097.85;  246.131;  244.074;  243.933; 2.05703
1098.39;  230.243;  227.740;  227.157; 2.50303
1098.92;  244.280;  243.127;  243.537; 1.15303
1099.46;  249.793;  249.541;  249.128; 0.25203
1099.99;  241.038;  239.752;  239.172; 1.28603
1100.53;  244.945;  244.654;  244.501; 0.29103

