2Channel
Integration time [ms]:   0.100
Averaging Nr. [scans]: 1000
Smoothing Nr. [pixels]: 0
Data measured with spectrometer [name]: 7213323SP
Wave   ;Sample   ;Dark     ;Reference;Scope Corrected for Dark
[nm]   ;[counts] ;[counts] ;[counts] ;[counts] 

 175.65;  181.118;  180.919;  180.414; 0.19833
 176.25;  200.443;  200.771;  201.051;-0.32867
 176.85;  198.191;  198.074;  197.041; 0.11733
 177.45;  198.821;  199.398;  199.894;-0.57667
 178.05;  189.143;  191.085;  190.085;-1.94167
 178.65;  188.900;  189.686;  189.195;-0.78567
 179.25;  184.563;  185.439;  186.282;-0.87567
 179.85;  193.849;  193.332;  191.669; 0.51733
 180.45;  183.436;  184.832;  185.031;-1.39567
 181.05;  226.117;  226.307;  226.588;-0.18967
 181.65;  187.249;  187.039;  188.083; 0.21033
 182.25;  207.192;  207.692;  206.883;-0.49967
 182.86;  203.839;  204.005;  202.121;-0.16667
 183.46;  202.120;  202.367;  200.708;-0.24767
 184.06;  183.536;  184.141;  185.033;-0.60467
 184.66;  164.884;  166.129;  164.643;-1.24568
 185.26;  207.015;  208.305;  214.998;-1.28967
 185.86;  188.735;  189.907;  191.880;-1.17167
 186.46;  210.983;  210.353;  211.614; 0.63033
 187.06;  193.901;  192.861;  194.406; 1.03933
 187.66;  213.205;  215.591;  216.525;-2.38667
 188.26;  219.986;  219.979;  220.940; 0.00733
 188.86;  198.795;  200.952;  200.640;-2.15767
 189.46;  196.111;  196.104;  198.052; 0.00733
 190.06;  187.289;  186.631;  188.358; 0.65833
 190.66;  192.334;  192.343;  194.493;-0.00867
 191.26;  210.341;  210.484;  212.779;-0.14267
 191.86;  206.176;  206.545;  207.622;-0.36867
 192.46;  204.096;  204.911;  206.770;-0.81467
 193.06;  205.283;  206.281;  207.841;-0.99867
 193.66;  195.260;  196.673;  199.942;-1.41367
 194.26;  212.522;  214.002;  218.472;-1.47967
 194.86;  181.664;  181.785;  184.097;-0.12067
 195.46;  187.546;  189.136;  189.176;-1.58967
 196.06;  200.462;  202.019;  202.533;-1.55667
 196.66;  179.752;  179.580;  181.286; 0.17233
 197.26;  177.699;  178.678;  180.080;-0.97867
 197.86;  208.438;  208.508;  210.197;-0.07067
 198.46;  176.109;  177.168;  179.072;-1.05967
 199.06;  203.471;  204.760;  206.441;-1.28867
 199.66;  193.082;  193.588;  194.867;-0.50567
 200.26;  182.014;  182.810;  185.670;-0.79667
 200.85;  200.478;  200.569;  202.080;-0.09067
 201.45;  192.288;  193.142;  195.434;-0.85467
 202.05;  191.826;  193.539;  195.645;-1.71267
 202.65;  187.155;  188.779;  189.896;-1.62367
 203.25;  178.763;  179.750;  181.206;-0.98667
 203.85;  192.582;  193.742;  195.949;-1.16067
 204.45;  222.075;  223.319;  226.293;-1.24367
 205.05;  167.461;  168.522;  170.599;-1.06067
 205.65;  174.325;  176.045;  177.581;-1.71967
 206.25;  201.582;  202.882;  205.331;-1.29967
 206.85;  179.923;  180.907;  183.435;-0.98467
 207.45;  188.171;  189.768;  191.637;-1.59667
 208.05;  177.164;  177.930;  180.242;-0.76567
 208.65;  179.497;  179.849;  182.976;-0.35168
 209.25;  172.162;  173.287;  174.426;-1.12467
 209.84;  201.320;  202.179;  203.273;-0.85867
 210.44;  181.207;  182.224;  184.524;-1.01667
 211.04;  215.813;  216.133;  219.523;-0.31967
 211.64;  182.719;  182.315;  184.227; 0.40433
 212.24;  193.279;  193.615;  196.408;-0.33567
 212.84;  187.716;  188.539;  191.061;-0.82268
 213.44;  175.696;  175.962;  179.735;-0.26667
 214.04;  174.436;  174.930;  178.889;-0.49367
 214.64;  192.525;  192.531;  196.183;-0.00667
 215.24;  171.921;  172.409;  175.860;-0.48767
 215.83;  192.804;  194.541;  195.308;-1.73667
 216.43;  160.068;  162.022;  164.475;-1.95367
 217.03;  168.575;  169.678;  173.835;-1.10367
 217.63;  173.012;  174.214;  178.008;-1.20167
 218.23;  182.902;  184.270;  187.688;-1.36767
 218.83;  175.521;  175.814;  179.547;-0.29267
 219.43;  171.614;  173.026;  177.218;-1.41167
 220.03;  165.028;  164.787;  168.913; 0.24033
 220.62;  168.634;  170.551;  174.999;-1.91667
 221.22;  180.766;  181.366;  185.496;-0.59967
 221.82;  185.211;  186.418;  189.660;-1.20667
 222.42;  162.780;  164.503;  168.935;-1.72368
 223.02;  177.656;  177.713;  182.327;-0.05667
 223.62;  167.452;  167.507;  175.421;-0.05467
 224.22;  188.303;  187.944;  195.708; 0.35933
 224.81;  180.694;  181.577;  190.209;-0.88267
 225.41;  179.602;  179.759;  189.807;-0.15667
 226.01;  165.615;  166.718;  175.050;-1.10267
 226.61;  168.003;  169.448;  178.854;-1.44467
 227.21;  169.061;  168.681;  178.313; 0.38033
 227.81;  193.848;  194.556;  205.112;-0.70767
 228.40;  160.996;  162.267;  172.708;-1.27067
 229.00;  170.406;  170.117;  181.048; 0.28933
 229.60;  172.475;  173.806;  183.766;-1.33067
 230.20;  197.355;  198.141;  211.512;-0.78567
 230.80;  158.134;  159.033;  172.378;-0.89867
 231.39;  153.497;  156.077;  169.722;-2.57967
 231.99;  173.623;  174.254;  189.251;-0.63067
 232.59;  199.748;  200.302;  217.599;-0.55367
 233.19;  168.524;  170.157;  188.513;-1.63367
 233.79;  181.399;  183.263;  202.434;-1.86368
 234.38;  167.496;  167.956;  190.099;-0.45967
 234.98;  173.224;  173.599;  196.074;-0.37467
 235.58;  176.840;  177.265;  201.586;-0.42467
 236.18;  188.563;  188.653;  212.456;-0.09067
 236.78;  176.494;  176.653;  202.247;-0.15967
 237.37;  188.597;  188.880;  218.441;-0.28267
 237.97;  192.567;  193.095;  224.600;-0.52767
 238.57;  193.251;  194.206;  226.967;-0.95567
 239.17;  163.677;  164.346;  198.792;-0.66967
 239.76;  183.840;  183.664;  220.862; 0.17633
 240.36;  172.728;  172.105;  212.675; 0.62333
 240.96;  200.106;  201.269;  243.349;-1.16267
 241.56;  169.032;  170.013;  211.808;-0.98167
 242.15;  175.734;  175.926;  223.065;-0.19268
 242.75;  194.554;  194.651;  246.418;-0.09667
 243.35;  170.374;  172.579;  226.927;-2.20467
 243.95;  181.837;  183.389;  243.754;-1.55167
 244.54;  195.845;  197.162;  259.178;-1.31667
 245.14;  190.635;  190.255;  258.872; 0.37933
 245.74;  207.079;  208.147;  280.750;-1.06867
 246.34;  179.860;  179.384;  260.989; 0.47633
 246.93;  193.353;  194.540;  283.881;-1.18667
 247.53;  148.455;  150.490;  263.537;-2.03567
 248.13;  189.312;  189.377;  330.762;-0.06467
 248.73;  177.221;  177.307;  312.884;-0.08667
 249.32;  181.171;  182.365;  307.340;-1.19467
 249.92;  170.654;  171.068;  313.021;-0.41467
 250.52;  187.666;  187.482;  364.988; 0.18433
 251.11;  186.703;  188.366;  413.921;-1.66267
 251.71;  202.080;  203.136;  535.383;-1.05567
 252.31;  158.821;  160.999; 1116.602;-2.17867
 252.91;  183.168;  184.060;12306.623;-0.89167
 253.50;  151.372;  152.327;38070.578;-0.95467
 254.10;  191.371;  193.074;33115.004;-1.70267
 254.70;  162.184;  162.164; 7397.543; 0.02033
 255.29;  196.133;  198.845;  779.898;-2.71167
 255.89;  181.550;  182.038;  427.893;-0.48767
 256.49;  163.745;  164.713;  337.986;-0.96867
 257.08;  169.938;  171.252;  312.391;-1.31467
 257.68;  185.966;  185.874;  307.577; 0.09233
 258.28;  181.944;  182.976;  290.710;-1.03167
 258.87;  187.965;  187.683;  281.589; 0.28133
 259.47;  171.734;  174.008;  256.904;-2.27468
 260.07;  180.159;  180.645;  258.984;-0.48567
 260.66;  155.582;  157.355;  230.508;-1.77267
 261.26;  204.809;  206.348;  273.389;-1.53867
 261.86;  196.509;  196.204;  260.153; 0.30433
 262.45;  171.989;  172.167;  231.401;-0.17867
 263.05;  172.247;  172.644;  230.199;-0.39767
 263.65;  173.732;  174.826;  226.449;-1.09467
 264.24;  189.033;  190.153;  241.350;-1.11967
 264.84;  199.755;  202.018;  281.498;-2.26267
 265.44;  178.768;  178.873;  273.867;-0.10467
 266.03;  173.341;  174.292;  231.179;-0.95067
 266.63;  163.113;  164.434;  197.785;-1.32067
 267.23;  179.954;  179.403;  211.605; 0.55033
 267.82;  158.280;  160.119;  187.883;-1.83967
 268.42;  167.592;  168.722;  194.649;-1.13067
 269.01;  168.161;  167.434;  194.558; 0.72733
 269.61;  177.070;  177.503;  204.840;-0.43267
 270.21;  179.715;  181.812;  207.045;-2.09667
 270.80;  197.534;  199.492;  224.414;-1.95767
 271.40;  159.698;  161.147;  183.775;-1.44867
 271.99;  195.498;  196.273;  218.373;-0.77567
 272.59;  152.626;  154.755;  177.199;-2.12867
 273.19;  163.148;  164.093;  186.254;-0.94567
 273.78;  151.373;  153.743;  175.177;-2.36967
 274.38;  165.624;  166.434;  193.021;-0.80967
 274.97;  176.417;  176.672;  212.682;-0.25567
 275.57;  174.905;  175.871;  215.124;-0.96567
 276.17;  146.452;  148.295;  175.473;-1.84267
 276.76;  175.629;  176.866;  200.892;-1.23667
 277.36;  172.135;  173.676;  195.657;-1.54067
 277.95;  177.687;  179.146;  202.104;-1.45867
 278.55;  160.823;  162.300;  183.571;-1.47767
 279.14;  177.641;  178.438;  204.050;-0.79667
 279.74;  176.532;  178.094;  211.006;-1.56167
 280.34;  160.926;  162.363;  207.562;-1.43667
 280.93;  199.002;  198.461;  243.101; 0.54133
 281.53;  156.082;  156.163;  204.471;-0.08167
 282.12;  179.793;  180.150;  242.247;-0.35667
 282.72;  170.300;  171.170;  237.668;-0.87067
 283.31;  178.728;  179.852;  225.194;-1.12367
 283.91;  159.129;  159.820;  189.204;-0.69067
 284.50;  186.301;  187.279;  209.412;-0.97767
 285.10;  196.888;  196.633;  220.160; 0.25533
 285.69;  157.146;  158.080;  181.279;-0.93467
 286.29;  182.744;  182.021;  205.333; 0.72333
 286.89;  169.682;  170.133;  193.509;-0.45167
 287.48;  175.038;  176.205;  198.821;-1.16667
 288.08;  191.463;  193.365;  213.941;-1.90167
 288.67;  171.184;  173.346;  211.533;-2.16167
 289.27;  173.019;  173.528;  238.460;-0.50867
 289.86;  170.146;  172.028;  224.048;-1.88267
 290.46;  155.816;  156.650;  182.953;-0.83467
 291.05;  170.168;  170.962;  190.854;-0.79368
 291.65;  165.141;  166.434;  186.464;-1.29267
 292.24;  190.075;  191.459;  217.061;-1.38367
 292.84;  175.515;  175.456;  198.640; 0.05933
 293.43;  180.374;  181.351;  201.754;-0.97667
 294.03;  177.321;  178.215;  197.677;-0.89367
 294.62;  184.729;  185.189;  205.562;-0.45967
 295.22;  164.873;  165.583;  187.902;-0.70967
 295.81;  178.771;  179.539;  227.659;-0.76767
 296.41;  167.389;  169.223;  618.639;-1.83367
 297.00;  183.616;  184.150;  879.669;-0.53367
 297.60;  173.456;  173.706;  448.744;-0.25067
 298.19;  177.758;  178.614;  234.456;-0.85667
 298.78;  174.164;  174.864;  208.659;-0.69967
 299.38;  159.921;  161.756;  184.146;-1.83467
 299.97;  187.619;  188.514;  207.510;-0.89467
 300.57;  175.880;  176.677;  193.837;-0.79767
 301.16;  133.303;  133.748;  152.734;-0.44467
 301.76;  170.870;  172.015;  237.006;-1.14567
 302.35;  173.205;  173.885;  322.268;-0.67967
 302.95;  192.248;  191.841;  300.113; 0.40733
 303.54;  149.610;  151.624;  188.905;-2.01467
 304.14;  155.372;  156.602;  182.352;-1.23067
 304.73;  187.436;  188.430;  213.586;-0.99367
 305.32;  177.578;  178.778;  200.159;-1.20067
 305.92;  156.182;  158.019;  180.386;-1.83667
 306.51;  152.297;  153.813;  174.896;-1.51567
 307.11;  173.527;  173.442;  194.701; 0.08433
 307.70;  152.769;  153.785;  174.665;-1.01667
 308.29;  153.803;  155.230;  177.264;-1.42667
 308.89;  163.190;  163.670;  185.946;-0.47967
 309.48;  123.817;  124.929;  149.281;-1.11167
 310.08;  163.557;  164.415;  192.005;-0.85767
 310.67;  163.575;  164.152;  194.927;-0.57667
 311.27;  149.801;  150.525;  202.344;-0.72467
 311.86;  154.818;  156.204;  434.649;-1.38567
 312.45;  159.549;  162.050; 1292.883;-2.50167
 313.05;  172.053;  172.450; 2220.983;-0.39767
 313.64;  164.565;  167.082; 1904.856;-2.51767
 314.23;  155.262;  156.245;  905.625;-0.98368
 314.83;  179.140;  180.583;  437.262;-1.44267
 315.42;  149.569;  150.195;  324.042;-0.62567
 316.02;  153.583;  155.471;  288.107;-1.88767
 316.61;  148.507;  148.681;  258.543;-0.17467
 317.20;  161.586;  163.095;  253.209;-1.50867
 317.80;  154.438;  155.435;  232.493;-0.99667
 318.39;  159.703;  159.932;  233.203;-0.22967
 318.98;  190.657;  190.871;  247.328;-0.21367
 319.58;  165.335;  165.811;  216.003;-0.47567
 320.17;  163.725;  165.908;  213.990;-2.18267
 320.76;  164.761;  165.569;  212.286;-0.80767
 321.36;  165.494;  165.360;  202.238; 0.13333
 321.95;  162.636;  163.546;  195.718;-0.90967
 322.55;  180.585;  182.524;  213.062;-1.93867
 323.14;  148.350;  147.977;  181.970; 0.37333
 323.73;  151.121;  151.773;  184.904;-0.65267
 324.33;  171.688;  171.757;  201.519;-0.06867
 324.92;  165.519;  166.605;  192.560;-1.08567
 325.51;  162.898;  163.988;  187.946;-1.09067
 326.10;  158.428;  158.567;  181.914;-0.13867
 326.70;  170.246;  170.823;  193.516;-0.57767
 327.29;  164.685;  165.754;  187.224;-1.06967
 327.88;  160.115;  160.484;  182.818;-0.36867
 328.48;  173.446;  172.900;  198.026; 0.54633
 329.07;  176.481;  176.931;  199.266;-0.44967
 329.66;  167.188;  167.338;  189.404;-0.14967
 330.26;  171.205;  170.315;  192.723; 0.88933
 330.85;  174.786;  175.245;  195.784;-0.45867
 331.44;  170.864;  171.748;  189.246;-0.88467
 332.04;  171.980;  173.970;  189.683;-1.99067
 332.63;  159.451;  160.135;  174.903;-0.68467
 333.22;  172.605;  172.764;  195.090;-0.15867
 333.81;  176.204;  178.451;  235.574;-2.24767
 334.41;  176.247;  176.567;  249.291;-0.32067
 335.00;  187.591;  187.943;  222.102;-0.35267
 335.59;  171.336;  171.635;  182.714;-0.29867
 336.18;  182.604;  183.361;  190.339;-0.75767
 336.78;  161.551;  162.601;  169.251;-1.05067
 337.37;  166.003;  167.347;  174.332;-1.34367
 337.96;  223.570;  223.507;  229.099; 0.06333
 338.55;  194.409;  194.528;  200.760;-0.11967
 339.15;  180.784;  182.290;  187.809;-1.50567
 339.74;  169.164;  170.423;  176.051;-1.25967
 340.33;  166.447;  166.761;  172.264;-0.31467
 340.92;  178.143;  179.833;  185.726;-1.68967
 341.52;  172.765;  174.017;  179.138;-1.25167
 342.11;  170.050;  170.075;  175.982;-0.02567
 342.70;  155.792;  157.067;  162.731;-1.27467
 343.29;  174.364;  174.449;  180.213;-0.08468
 343.89;  160.676;  160.703;  166.492;-0.02667
 344.48;  173.708;  174.727;  181.187;-1.01867
 345.07;  150.642;  151.632;  158.639;-0.98967
 345.66;  179.610;  180.273;  186.801;-0.66367
 346.25;  165.272;  166.511;  171.893;-1.23967
 346.85;  177.493;  177.788;  184.557;-0.29467
 347.44;  156.902;  156.673;  164.301; 0.22833
 348.03;  165.038;  165.808;  173.428;-0.76967
 348.62;  184.387;  185.926;  191.544;-1.53867
 349.21;  160.603;  161.691;  170.085;-1.08867
 349.81;  171.892;  172.419;  180.710;-0.52767
 350.40;  159.494;  159.988;  168.015;-0.49467
 350.99;  154.412;  155.664;  164.370;-1.25267
 351.58;  166.152;  164.716;  175.213; 1.43533
 352.17;  139.639;  141.008;  150.727;-1.36967
 352.77;  165.037;  165.438;  175.698;-0.40067
 353.36;  172.587;  172.920;  184.777;-0.33267
 353.95;  172.223;  173.301;  183.532;-1.07767
 354.54;  151.465;  153.863;  164.695;-2.39767
 355.13;  170.295;  170.783;  185.178;-0.48867
 355.72;  174.934;  174.317;  189.178; 0.61732
 356.32;  162.222;  164.231;  179.394;-2.00867
 356.91;  182.027;  183.800;  198.581;-1.77267
 357.50;  165.706;  166.814;  181.332;-1.10767
 358.09;  158.920;  161.077;  175.948;-2.15667
 358.68;  165.381;  164.655;  182.453; 0.72532
 359.27;  174.671;  175.654;  193.575;-0.98267
 359.86;  179.989;  181.288;  201.175;-1.29867
 360.46;  152.848;  154.076;  174.085;-1.22767
 361.05;  168.319;  168.579;  190.340;-0.25967
 361.64;  163.317;  162.541;  185.086; 0.77633
 362.23;  167.188;  166.555;  194.651; 0.63333
 362.82;  159.076;  160.226;  192.502;-1.14968
 363.41;  163.866;  164.669;  207.875;-0.80367
 364.00;  172.444;  172.156;  353.780; 0.28833
 364.59;  177.050;  178.716; 1486.313;-1.66667
 365.19;  156.898;  158.199; 2522.935;-1.30068
 365.78;  177.651;  179.113; 1660.725;-1.46167
 366.37;  163.869;  164.869;  731.492;-0.99967
 366.96;  163.175;  165.324;  397.552;-2.14968
 367.55;  178.030;  178.115;  244.913;-0.08467
 368.14;  172.551;  173.306;  214.336;-0.75567
 368.73;  181.086;  183.335;  218.072;-2.24867
 369.32;  184.255;  185.203;  217.455;-0.94867
 369.91;  177.107;  179.000;  209.941;-1.89367
 370.50;  187.019;  187.978;  219.302;-0.95867
 371.09;  169.494;  170.219;  202.742;-0.72567
 371.69;  164.444;  165.371;  198.902;-0.92767
 372.28;  160.545;  161.032;  193.164;-0.48667
 372.87;  193.316;  194.495;  229.204;-1.17967
 373.46;  162.515;  162.786;  198.627;-0.27067
 374.05;  181.561;  182.726;  218.578;-1.16467
 374.64;  181.632;  182.429;  220.031;-0.79667
 375.23;  171.727;  173.409;  210.680;-1.68267
 375.82;  191.666;  191.877;  231.757;-0.21168
 376.41;  186.725;  187.002;  227.311;-0.27767
 377.00;  185.355;  186.060;  229.443;-0.70467
 377.59;  176.434;  176.931;  220.777;-0.49667
 378.18;  178.273;  179.365;  222.855;-1.09267
 378.77;  176.560;  177.506;  221.661;-0.94567
 379.36;  166.608;  167.725;  215.856;-1.11667
 379.95;  186.098;  188.814;  236.560;-2.71667
 380.54;  180.704;  180.542;  233.047; 0.16133
 381.13;  193.005;  194.423;  245.947;-1.41767
 381.72;  161.665;  162.089;  217.145;-0.42467
 382.31;  194.839;  195.072;  250.810;-0.23368
 382.90;  176.913;  178.791;  235.621;-1.87767
 383.49;  222.091;  223.253;  281.132;-1.16168
 384.08;  164.385;  166.195;  226.846;-1.81067
 384.67;  189.878;  191.906;  252.682;-2.02767
 385.26;  184.909;  185.799;  250.489;-0.88967
 385.85;  169.382;  169.888;  233.966;-0.50567
 386.44;  182.870;  183.949;  250.247;-1.07867
 387.03;  193.434;  194.145;  264.478;-0.71167
 387.62;  158.629;  158.870;  228.198;-0.24068
 388.21;  191.809;  192.293;  263.020;-0.48367
 388.80;  173.361;  174.378;  246.997;-1.01667
 389.39;  176.589;  178.567;  253.348;-1.97868
 389.98;  176.709;  177.961;  255.753;-1.25167
 390.57;  175.499;  175.013;  255.437; 0.48533
 391.16;  181.248;  183.196;  261.714;-1.94867
 391.75;  190.045;  192.996;  269.716;-2.95067
 392.34;  192.525;  193.226;  270.151;-0.70167
 392.93;  186.797;  188.718;  268.909;-1.92167
 393.52;  161.607;  163.534;  245.097;-1.92667
 394.11;  166.785;  167.674;  250.044;-0.88867
 394.70;  206.150;  207.232;  289.266;-1.08167
 395.29;  187.121;  187.369;  271.052;-0.24867
 395.88;  174.025;  174.055;  257.652;-0.02967
 396.47;  190.247;  190.842;  273.788;-0.59467
 397.05;  174.290;  176.117;  258.016;-1.82667
 397.64;  187.955;  187.679;  272.155; 0.27633
 398.23;  178.381;  180.032;  265.215;-1.65167
 398.82;  179.875;  181.963;  265.767;-2.08867
 399.41;  170.985;  170.240;  255.098; 0.74533
 400.00;  167.244;  168.286;  252.393;-1.04167
 400.59;  187.738;  189.395;  273.690;-1.65668
 401.18;  181.614;  182.974;  269.091;-1.36068
 401.77;  175.189;  176.364;  262.585;-1.17467
 402.36;  188.660;  188.854;  281.319;-0.19367
 402.95;  171.995;  174.099;  273.673;-2.10367
 403.53;  188.280;  190.108;  388.007;-1.82767
 404.12;  174.444;  175.734; 1465.115;-1.28967
 404.71;  173.094;  173.658; 2583.144;-0.56467
 405.30;  153.389;  153.799; 1466.161;-0.41067
 405.89;  169.087;  169.976;  421.434;-0.88867
 406.48;  190.621;  190.485;  292.922; 0.13632
 407.07;  161.091;  161.832;  287.548;-0.74067
 407.66;  185.055;  186.426;  386.657;-1.37167
 408.24;  185.878;  185.980;  354.475;-0.10167
 408.83;  188.167;  188.277;  276.672;-0.11067
 409.42;  161.712;  163.692;  233.595;-1.98067
 410.01;  178.022;  179.442;  246.646;-1.41967
 410.60;  189.237;  190.751;  254.574;-1.51367
 411.19;  159.491;  158.964;  222.268; 0.52733
 411.78;  160.218;  159.580;  221.798; 0.63833
 412.36;  165.581;  166.294;  225.619;-0.71267
 412.95;  172.840;  174.622;  232.970;-1.78167
 413.54;  196.170;  196.434;  253.428;-0.26367
 414.13;  187.434;  188.494;  245.348;-1.05967
 414.72;  170.626;  170.550;  226.540; 0.07533
 415.31;  171.574;  172.091;  228.778;-0.51667
 415.89;  153.034;  154.371;  208.684;-1.33667
 416.48;  173.138;  172.903;  225.226; 0.23533
 417.07;  163.016;  163.674;  214.352;-0.65767
 417.66;  193.306;  193.063;  243.116; 0.24333
 418.25;  179.218;  179.507;  226.683;-0.28867
 418.83;  174.243;  174.184;  222.017; 0.05933
 419.42;  178.945;  178.844;  226.599; 0.10133
 420.01;  181.509;  182.921;  228.959;-1.41167
 420.60;  180.393;  179.992;  225.851; 0.40133
 421.19;  202.997;  202.697;  246.419; 0.30033
 421.77;  159.235;  159.119;  202.087; 0.11633
 422.36;  188.809;  190.120;  230.957;-1.31067
 422.95;  177.025;  177.825;  218.066;-0.79967
 423.54;  196.238;  196.331;  236.024;-0.09267
 424.12;  186.969;  186.228;  225.095; 0.74033
 424.71;  186.871;  186.793;  224.132; 0.07833
 425.30;  193.038;  191.971;  231.290; 1.06733
 425.89;  191.278;  191.839;  228.544;-0.56067
 426.48;  182.327;  182.641;  220.262;-0.31367
 427.06;  176.015;  176.712;  212.383;-0.69667
 427.65;  190.626;  190.214;  225.779; 0.41133
 428.24;  170.348;  170.157;  202.939; 0.19133
 428.83;  179.294;  179.758;  213.653;-0.46467
 429.41;  192.070;  191.093;  224.759; 0.97633
 430.00;  177.773;  177.556;  211.652; 0.21733
 430.59;  212.250;  210.549;  246.183; 1.70033
 431.17;  195.571;  195.419;  229.574; 0.15233
 431.76;  196.525;  194.669;  230.916; 1.85533
 432.35;  205.644;  203.964;  241.614; 1.68032
 432.94;  199.761;  199.092;  244.729; 0.66933
 433.52;  199.237;  197.763;  258.083; 1.47433
 434.11;  205.094;  204.189;  298.172; 0.90533
 434.70;  194.854;  193.774;  485.671; 1.08033
 435.29;  209.092;  208.933; 2805.055; 0.15833
 435.87;  204.183;  202.933; 5150.592; 1.25033
 436.46;  207.738;  206.346; 2722.762; 1.39133
 437.05;  180.025;  179.373;  540.545; 0.65133
 437.63;  198.243;  197.695;  274.666; 0.54833
 438.22;  202.081;  200.998;  248.964; 1.08233
 438.81;  214.116;  213.821;  253.576; 0.29533
 439.39;  187.992;  186.400;  219.764; 1.59233
 439.98;  204.474;  202.183;  232.521; 2.29033
 440.57;  199.480;  197.256;  225.617; 2.22433
 441.15;  200.990;  193.395;  219.055; 7.59533
 441.74;  216.479;  199.184;  220.966;17.29433
 442.33;  236.622;  206.115;  227.628;30.50733
 442.91;  245.773;  200.382;  222.203;45.39033
 443.50;  250.518;  192.745;  212.909;57.77333
 444.09;  248.285;  182.183;  202.260;66.10233
 444.67;  284.387;  216.214;  236.318;68.17233
 445.26;  261.993;  195.304;  213.821;66.68833
 445.85;  272.205;  211.454;  229.093;60.75133
 446.43;  250.722;  194.202;  213.253;56.51933
 447.02;  240.354;  195.692;  213.971;44.66133
 447.61;  211.075;  176.504;  193.601;34.57133
 448.19;  224.785;  202.091;  218.236;22.69433
 448.78;  205.477;  192.709;  208.027;12.76733
 449.36;  201.805;  196.322;  212.489; 5.48333
 449.95;  192.140;  189.809;  205.296; 2.33133
 450.54;  187.279;  186.291;  202.068; 0.98833
 451.12;  209.615;  209.062;  224.440; 0.55333
 451.71;  174.914;  174.470;  190.035; 0.44433
 452.30;  200.244;  200.360;  214.755;-0.11568
 452.88;  191.286;  189.679;  204.263; 1.60633
 453.47;  175.676;  173.936;  188.234; 1.73933
 454.05;  183.491;  183.852;  198.324;-0.36067
 454.64;  194.840;  195.260;  209.186;-0.41967
 455.22;  208.999;  209.396;  222.695;-0.39667
 455.81;  173.000;  173.967;  186.806;-0.96667
 456.40;  209.085;  210.083;  221.415;-0.99867
 456.98;  183.196;  183.685;  196.557;-0.48867
 457.57;  202.049;  201.147;  214.096; 0.90233
 458.15;  208.482;  207.769;  220.194; 0.71333
 458.74;  195.549;  195.236;  205.667; 0.31333
 459.33;  199.350;  200.345;  211.567;-0.99467
 459.91;  199.403;  199.537;  209.606;-0.13467
 460.50;  197.798;  199.927;  210.124;-2.12967
 461.08;  191.061;  191.316;  201.549;-0.25467
 461.67;  192.190;  193.380;  203.915;-1.18967
 462.25;  197.182;  198.471;  208.184;-1.28967
 462.84;  167.440;  168.095;  177.443;-0.65467
 463.42;  185.422;  186.336;  197.335;-0.91467
 464.01;  188.073;  187.394;  200.154; 0.67833
 464.59;  198.674;  199.975;  209.773;-1.30067
 465.18;  186.848;  187.276;  196.631;-0.42767
 465.76;  192.941;  192.561;  202.098; 0.37932
 466.35;  191.312;  192.762;  202.134;-1.45067
 466.94;  202.568;  202.229;  211.128; 0.33933
 467.52;  210.842;  211.881;  220.402;-1.03967
 468.11;  175.148;  177.336;  185.451;-2.18767
 468.69;  169.516;  170.165;  178.777;-0.64967
 469.28;  162.141;  161.175;  169.570; 0.96533
 469.86;  196.495;  197.681;  204.795;-1.18568
 470.45;  190.653;  191.272;  198.769;-0.61867
 471.03;  172.182;  172.248;  179.928;-0.06567
 471.62;  183.679;  183.444;  189.847; 0.23433
 472.20;  186.694;  186.086;  194.726; 0.60733
 472.79;  220.529;  222.892;  228.835;-2.36367
 473.37;  186.487;  186.459;  192.908; 0.02733
 473.95;  184.386;  183.877;  192.703; 0.50833
 474.54;  144.791;  145.957;  152.162;-1.16667
 475.12;  211.187;  211.149;  218.210; 0.03833
 475.71;  191.931;  192.610;  199.441;-0.67967
 476.29;  195.080;  196.363;  203.200;-1.28267
 476.88;  172.013;  172.972;  178.540;-0.95967
 477.46;  172.251;  174.791;  179.356;-2.53967
 478.05;  180.544;  180.951;  186.478;-0.40667
 478.63;  184.450;  185.430;  191.034;-0.98067
 479.22;  165.899;  166.175;  170.278;-0.27567
 479.80;  189.682;  189.907;  195.363;-0.22467
 480.38;  184.741;  185.840;  191.085;-1.09867
 480.97;  169.565;  169.570;  174.897;-0.00467
 481.55;  179.722;  180.721;  186.205;-0.99867
 482.14;  201.951;  202.878;  207.401;-0.92667
 482.72;  176.399;  176.124;  182.124; 0.27433
 483.31;  173.192;  174.403;  177.897;-1.21067
 483.89;  176.376;  178.503;  182.403;-2.12667
 484.47;  178.730;  178.466;  182.354; 0.26433
 485.06;  166.572;  168.540;  172.672;-1.96767
 485.64;  190.792;  192.992;  195.664;-2.19967
 486.23;  195.321;  197.050;  200.398;-1.72867
 486.81;  189.692;  189.918;  194.241;-0.22668
 487.39;  158.446;  160.088;  164.354;-1.64267
 487.98;  172.137;  172.594;  176.507;-0.45667
 488.56;  200.856;  201.878;  205.349;-1.02167
 489.15;  170.918;  170.912;  176.203; 0.00633
 489.73;  174.296;  175.128;  179.606;-0.83167
 490.31;  172.976;  174.835;  179.772;-1.85967
 490.90;  174.402;  175.154;  182.159;-0.75167
 491.48;  178.205;  178.744;  192.437;-0.53867
 492.06;  190.976;  192.297;  201.679;-1.32167
 492.65;  162.261;  163.759;  168.469;-1.49767
 493.23;  151.537;  151.642;  155.351;-0.10567
 493.82;  184.242;  185.341;  188.929;-1.09867
 494.40;  152.268;  151.904;  154.592; 0.36433
 494.98;  169.248;  170.126;  173.304;-0.87767
 495.57;  150.392;  151.372;  154.804;-0.98067
 496.15;  147.348;  147.929;  152.224;-0.58167
 496.73;  161.849;  162.645;  165.567;-0.79567
 497.32;  183.160;  183.062;  185.987; 0.09832
 497.90;  181.146;  182.221;  184.261;-1.07467
 498.48;  157.567;  158.959;  161.229;-1.39267
 499.07;  163.503;  164.865;  167.574;-1.36267
 499.65;  182.017;  182.334;  185.883;-0.31667
 500.23;  148.018;  148.420;  150.126;-0.40267
 500.82;  157.783;  161.391;  163.825;-3.60767
 501.40;  162.594;  163.786;  166.053;-1.19267
 501.98;  175.278;  176.743;  178.435;-1.46467
 502.56;  188.230;  190.659;  192.690;-2.42867
 503.15;  189.093;  189.957;  191.639;-0.86367
 503.73;  172.412;  174.199;  175.410;-1.78767
 504.31;  174.588;  176.273;  178.659;-1.68467
 504.90;  182.897;  183.849;  186.738;-0.95167
 505.48;  196.233;  197.861;  199.199;-1.62767
 506.06;  179.752;  182.214;  184.710;-2.46267
 506.64;  167.110;  167.755;  170.026;-0.64467
 507.23;  173.468;  174.493;  176.401;-1.02567
 507.81;  183.851;  185.624;  188.977;-1.77367
 508.39;  172.628;  174.552;  176.174;-1.92367
 508.97;  182.359;  182.149;  185.047; 0.21033
 509.56;  191.133;  193.061;  194.375;-1.92767
 510.14;  157.362;  158.441;  161.241;-1.07867
 510.72;  174.408;  176.314;  177.478;-1.90667
 511.30;  184.718;  185.663;  186.041;-0.94467
 511.89;  182.232;  183.962;  185.565;-1.73067
 512.47;  177.115;  178.887;  181.031;-1.77167
 513.05;  174.663;  174.809;  177.585;-0.14567
 513.63;  174.657;  175.330;  177.868;-0.67267
 514.22;  185.353;  186.419;  189.266;-1.06567
 514.80;  184.761;  187.149;  188.139;-2.38768
 515.38;  175.495;  176.359;  179.039;-0.86467
 515.96;  196.965;  198.646;  200.259;-1.68067
 516.55;  170.069;  171.662;  172.391;-1.59267
 517.13;  180.643;  181.301;  186.021;-0.65767
 517.71;  165.410;  167.765;  169.247;-2.35567
 518.29;  165.505;  166.993;  170.914;-1.48767
 518.87;  177.707;  180.043;  182.674;-2.33567
 519.46;  170.193;  171.588;  174.753;-1.39467
 520.04;  173.499;  174.477;  177.625;-0.97767
 520.62;  164.128;  165.577;  166.467;-1.44867
 521.20;  160.116;  161.544;  162.686;-1.42867
 521.78;  176.900;  177.077;  180.553;-0.17767
 522.36;  172.614;  173.507;  175.982;-0.89367
 522.95;  171.801;  173.525;  177.197;-1.72467
 523.53;  160.822;  160.559;  164.834; 0.26333
 524.11;  172.225;  172.830;  176.760;-0.60467
 524.69;  167.028;  168.486;  170.408;-1.45767
 525.27;  169.729;  170.764;  173.546;-1.03467
 525.85;  179.768;  179.811;  182.985;-0.04267
 526.44;  178.473;  180.926;  182.487;-2.45367
 527.02;  188.922;  190.051;  192.145;-1.12967
 527.60;  182.070;  182.817;  184.817;-0.74767
 528.18;  164.649;  164.163;  168.352; 0.48633
 528.76;  193.334;  195.064;  197.754;-1.73067
 529.34;  177.726;  178.814;  182.904;-1.08867
 529.92;  195.297;  195.851;  199.070;-0.55467
 530.51;  184.317;  185.190;  189.082;-0.87267
 531.09;  176.560;  177.524;  180.559;-0.96467
 531.67;  170.272;  171.716;  176.286;-1.44367
 532.25;  191.944;  193.898;  198.863;-1.95467
 532.83;  192.587;  193.453;  200.968;-0.86567
 533.41;  169.344;  170.702;  175.342;-1.35867
 533.99;  193.527;  194.779;  200.241;-1.25167
 534.57;  213.797;  214.377;  219.337;-0.57968
 535.15;  175.290;  175.647;  181.714;-0.35667
 535.74;  169.467;  169.958;  177.698;-0.49167
 536.32;  174.915;  176.294;  183.533;-1.37867
 536.90;  167.396;  168.087;  173.158;-0.69067
 537.48;  181.770;  181.900;  186.764;-0.13067
 538.06;  198.644;  199.959;  204.852;-1.31567
 538.64;  185.063;  185.566;  193.302;-0.50367
 539.22;  176.955;  177.351;  184.206;-0.39567
 539.80;  182.697;  183.048;  190.142;-0.35067
 540.38;  197.026;  198.265;  205.750;-1.23867
 540.96;  166.863;  167.682;  176.155;-0.81967
 541.54;  172.951;  173.804;  183.672;-0.85267
 542.12;  216.860;  216.864;  228.946;-0.00467
 542.70;  162.180;  161.903;  178.319; 0.27733
 543.28;  181.291;  182.019;  202.682;-0.72767
 543.86;  173.931;  174.277;  204.103;-0.34567
 544.44;  225.163;  226.892;  278.849;-1.72867
 545.02;  193.394;  194.464;  518.343;-1.06967
 545.61;  182.179;  183.184; 3429.565;-1.00467
 546.19;  185.624;  186.751; 4874.079;-1.12667
 546.77;  180.079;  181.234; 1764.281;-1.15467
 547.35;  211.773;  213.513;  398.729;-1.73967
 547.93;  188.277;  190.275;  238.837;-1.99767
 548.51;  192.127;  192.444;  217.970;-0.31767
 549.09;  199.487;  200.520;  218.477;-1.03267
 549.67;  198.698;  200.022;  211.654;-1.32367
 550.25;  181.287;  180.811;  191.700; 0.47533
 550.83;  203.071;  205.418;  213.583;-2.34668
 551.41;  191.772;  192.111;  198.861;-0.33867
 551.99;  189.518;  191.188;  196.932;-1.67067
 552.57;  190.574;  191.228;  197.915;-0.65467
 553.15;  209.292;  209.117;  214.893; 0.17533
 553.73;  169.592;  170.078;  174.930;-0.48567
 554.30;  200.683;  201.957;  206.191;-1.27367
 554.88;  187.255;  188.356;  191.836;-1.10168
 555.46;  194.819;  195.482;  201.328;-0.66267
 556.04;  188.542;  189.068;  193.265;-0.52667
 556.62;  211.428;  211.218;  215.762; 0.20933
 557.20;  174.225;  175.190;  178.369;-0.96567
 557.78;  197.103;  197.203;  201.259;-0.09967
 558.36;  210.138;  211.720;  213.174;-1.58267
 558.94;  208.935;  208.744;  212.481; 0.19033
 559.52;  181.814;  182.546;  185.274;-0.73267
 560.10;  196.428;  197.712;  200.758;-1.28467
 560.68;  195.876;  197.598;  200.698;-1.72267
 561.26;  216.024;  216.549;  221.469;-0.52467
 561.84;  174.931;  176.186;  179.169;-1.25467
 562.42;  189.369;  190.872;  194.921;-1.50367
 563.00;  196.167;  196.236;  200.683;-0.06867
 563.58;  192.716;  193.715;  197.730;-0.99967
 564.15;  190.876;  191.132;  196.425;-0.25667
 564.73;  198.403;  199.274;  203.546;-0.87167
 565.31;  210.490;  210.517;  214.694;-0.02767
 565.89;  174.955;  176.152;  180.168;-1.19767
 566.47;  185.789;  186.376;  190.334;-0.58667
 567.05;  205.533;  207.090;  209.801;-1.55667
 567.63;  189.044;  190.231;  193.745;-1.18667
 568.21;  182.385;  184.467;  188.234;-2.08267
 568.79;  206.308;  207.780;  211.859;-1.47267
 569.36;  230.689;  231.222;  236.033;-0.53267
 569.94;  184.587;  185.240;  190.086;-0.65267
 570.52;  204.821;  204.336;  208.876; 0.48532
 571.10;  152.717;  153.109;  157.098;-0.39167
 571.68;  194.482;  196.182;  199.348;-1.69967
 572.26;  201.972;  202.530;  206.805;-0.55867
 572.84;  206.474;  206.460;  213.302; 0.01433
 573.41;  185.603;  186.632;  191.510;-1.02867
 573.99;  226.887;  227.859;  234.484;-0.97168
 574.57;  189.754;  191.082;  198.005;-1.32767
 575.15;  221.894;  223.101;  233.762;-1.20667
 575.73;  205.751;  206.807;  238.659;-1.05567
 576.31;  202.656;  203.764;  581.907;-1.10868
 576.88;  177.652;  180.000;  993.686;-2.34867
 577.46;  186.878;  187.217;  632.249;-0.33867
 578.04;  182.400;  182.140;  314.338; 0.26033
 578.62;  181.666;  182.141;  838.586;-0.47467
 579.20;  187.202;  187.289; 1006.280;-0.08668
 579.78;  193.632;  195.108;  438.584;-1.47668
 580.35;  194.231;  194.661;  224.094;-0.43067
 580.93;  183.563;  183.319;  193.932; 0.24433
 581.51;  196.502;  197.904;  203.406;-1.40167
 582.09;  176.870;  177.021;  181.770;-0.15167
 582.67;  177.733;  178.717;  181.880;-0.98367
 583.24;  180.994;  181.913;  185.282;-0.91967
 583.82;  184.077;  184.170;  188.714;-0.09267
 584.40;  180.983;  183.018;  186.158;-2.03467
 584.98;  179.177;  180.437;  183.929;-1.25968
 585.55;  191.626;  191.740;  197.391;-0.11367
 586.13;  168.049;  168.560;  170.347;-0.51067
 586.71;  188.769;  189.825;  193.534;-1.05667
 587.29;  183.180;  183.159;  185.393; 0.02033
 587.86;  184.521;  185.415;  189.128;-0.89367
 588.44;  148.536;  148.676;  151.278;-0.13968
 589.02;  200.214;  199.453;  202.846; 0.76132
 589.60;  177.382;  178.239;  180.686;-0.85767
 590.17;  190.484;  190.163;  192.297; 0.32133
 590.75;  167.388;  167.953;  169.301;-0.56467
 591.33;  166.829;  167.885;  171.119;-1.05567
 591.91;  176.814;  177.390;  180.134;-0.57567
 592.48;  171.342;  171.850;  174.727;-0.50867
 593.06;  188.381;  189.411;  191.277;-1.02967
 593.64;  184.316;  184.429;  186.123;-0.11267
 594.21;  169.706;  170.349;  171.966;-0.64267
 594.79;  181.144;  182.273;  184.253;-1.12867
 595.37;  183.082;  185.500;  186.634;-2.41767
 595.95;  168.254;  167.131;  169.210; 1.12233
 596.52;  172.349;  173.512;  174.385;-1.16267
 597.10;  177.577;  180.359;  181.543;-2.78267
 597.68;  164.012;  164.216;  167.048;-0.20367
 598.25;  188.111;  188.818;  191.102;-0.70667
 598.83;  166.342;  166.330;  168.230; 0.01233
 599.41;  180.167;  182.100;  181.930;-1.93267
 599.98;  205.576;  206.795;  207.470;-1.21967
 600.56;  192.836;  194.319;  196.510;-1.48267
 601.14;  179.659;  181.172;  182.296;-1.51267
 601.71;  182.864;  183.589;  185.581;-0.72467
 602.29;  170.553;  169.419;  171.919; 1.13432
 602.87;  192.988;  194.769;  196.942;-1.78067
 603.44;  186.924;  187.254;  189.970;-0.32967
 604.02;  179.787;  180.861;  183.106;-1.07367
 604.60;  198.855;  200.630;  201.173;-1.77467
 605.17;  205.791;  207.202;  208.291;-1.41167
 605.75;  196.122;  196.203;  198.867;-0.08167
 606.33;  187.433;  188.326;  190.642;-0.89267
 606.90;  208.686;  208.154;  211.394; 0.53233
 607.48;  197.871;  197.860;  199.325; 0.01133
 608.05;  176.258;  176.407;  178.524;-0.14867
 608.63;  182.971;  183.413;  186.371;-0.44267
 609.21;  174.643;  175.125;  176.448;-0.48167
 609.78;  201.981;  202.864;  205.182;-0.88267
 610.36;  190.850;  192.154;  191.741;-1.30367
 610.93;  195.061;  195.185;  196.171;-0.12367
 611.51;  176.555;  177.196;  179.469;-0.64067
 612.09;  204.901;  205.436;  207.395;-0.53467
 612.66;  187.079;  188.704;  190.107;-1.62467
 613.24;  199.963;  201.654;  203.003;-1.69067
 613.81;  206.016;  205.772;  206.200; 0.24433
 614.39;  200.632;  200.987;  203.399;-0.35467
 614.96;  216.097;  217.772;  217.412;-1.67467
 615.54;  200.598;  200.136;  201.843; 0.46233
 616.12;  208.941;  208.747;  209.965; 0.19333
 616.69;  165.960;  167.104;  169.197;-1.14367
 617.27;  194.733;  195.313;  196.719;-0.57968
 617.84;  176.668;  176.420;  178.833; 0.24833
 618.42;  211.347;  212.021;  211.207;-0.67367
 618.99;  195.018;  196.354;  195.870;-1.33567
 619.57;  213.324;  213.618;  214.600;-0.29367
 620.14;  202.464;  203.450;  204.552;-0.98667
 620.72;  182.872;  183.029;  183.325;-0.15767
 621.30;  205.578;  206.396;  206.934;-0.81867
 621.87;  213.391;  214.650;  212.652;-1.25867
 622.45;  203.141;  204.469;  204.167;-1.32767
 623.02;  176.832;  177.509;  178.127;-0.67667
 623.60;  186.780;  186.830;  189.356;-0.04967
 624.17;  193.905;  193.902;  194.886; 0.00232
 624.75;  203.596;  205.391;  205.327;-1.79467
 625.32;  190.830;  191.394;  192.308;-0.56467
 625.90;  196.674;  197.282;  198.133;-0.60767
 626.47;  207.746;  208.475;  210.485;-0.72868
 627.05;  180.599;  180.684;  179.759;-0.08567
 627.62;  196.384;  196.974;  196.459;-0.58967
 628.20;  217.198;  218.835;  218.249;-1.63768
 628.77;  210.431;  212.549;  211.877;-2.11767
 629.34;  229.716;  230.323;  231.819;-0.60667
 629.92;  186.137;  187.731;  187.490;-1.59367
 630.49;  211.943;  212.216;  213.266;-0.27267
 631.07;  186.708;  188.351;  188.294;-1.64367
 631.64;  186.630;  186.963;  187.824;-0.33367
 632.22;  230.357;  230.101;  230.912; 0.25633
 632.79;  204.609;  204.962;  206.039;-0.35267
 633.37;  212.264;  212.244;  212.526; 0.02033
 633.94;  205.861;  206.734;  206.488;-0.87267
 634.52;  199.726;  200.579;  199.758;-0.85367
 635.09;  213.603;  214.711;  215.253;-1.10767
 635.66;  180.503;  180.185;  181.904; 0.31833
 636.24;  193.829;  194.244;  196.282;-0.41467
 636.81;  234.584;  235.976;  236.037;-1.39167
 637.39;  217.853;  219.078;  219.425;-1.22567
 637.96;  212.631;  214.702;  214.710;-2.07067
 638.54;  214.166;  213.006;  214.657; 1.16033
 639.11;  190.198;  190.482;  192.193;-0.28367
 639.68;  216.389;  216.255;  218.132; 0.13333
 640.26;  200.373;  199.975;  200.830; 0.39832
 640.83;  200.887;  201.630;  202.731;-0.74267
 641.41;  194.484;  195.500;  195.288;-1.01567
 641.98;  200.665;  201.296;  202.609;-0.63067
 642.55;  179.120;  181.592;  181.128;-2.47167
 643.13;  196.995;  197.802;  198.066;-0.80667
 643.70;  215.673;  215.956;  217.215;-0.28267
 644.27;  202.034;  203.148;  203.618;-1.11367
 644.85;  192.599;  193.782;  194.159;-1.18267
 645.42;  200.022;  199.487;  199.911; 0.53533
 645.99;  188.987;  189.177;  190.061;-0.18967
 646.57;  194.369;  195.252;  196.463;-0.88268
 647.14;  200.862;  201.563;  201.200;-0.70067
 647.72;  179.518;  179.554;  180.416;-0.03567
 648.29;  191.191;  191.996;  192.608;-0.80467
 648.86;  216.369;  216.634;  216.710;-0.26468
 649.44;  182.860;  183.829;  183.041;-0.96967
 650.01;  193.220;  193.153;  193.457; 0.06633
 650.58;  200.880;  201.539;  202.430;-0.65967
 651.16;  199.521;  200.184;  200.440;-0.66367
 651.73;  186.920;  188.469;  187.736;-1.54967
 652.30;  204.253;  204.414;  207.431;-0.16168
 652.87;  189.834;  190.593;  192.315;-0.75967
 653.45;  211.805;  212.123;  212.966;-0.31867
 654.02;  185.640;  185.976;  187.624;-0.33667
 654.59;  195.673;  196.795;  196.423;-1.12267
 655.17;  200.904;  201.212;  201.261;-0.30867
 655.74;  184.484;  185.868;  184.871;-1.38467
 656.31;  197.359;  197.586;  197.131;-0.22767
 656.89;  198.947;  199.322;  199.572;-0.37567
 657.46;  204.553;  205.252;  205.138;-0.69967
 658.03;  210.092;  211.349;  212.823;-1.25768
 658.60;  192.198;  193.805;  194.048;-1.60767
 659.18;  207.355;  208.100;  210.082;-0.74567
 659.75;  190.541;  193.374;  194.466;-2.83367
 660.32;  210.542;  212.133;  212.587;-1.59168
 660.89;  192.261;  192.428;  193.109;-0.16767
 661.47;  211.144;  212.311;  212.436;-1.16767
 662.04;  212.091;  212.624;  212.492;-0.53367
 662.61;  194.130;  193.858;  195.400; 0.27133
 663.18;  199.158;  201.294;  202.315;-2.13667
 663.76;  180.538;  182.413;  181.848;-1.87567
 664.33;  206.511;  207.452;  208.590;-0.94167
 664.90;  202.138;  202.553;  203.257;-0.41567
 665.47;  196.066;  197.111;  197.715;-1.04568
 666.05;  189.176;  189.982;  190.679;-0.80667
 666.62;  223.712;  224.362;  225.637;-0.65067
 667.19;  189.493;  189.526;  192.394;-0.03267
 667.76;  184.101;  185.401;  189.455;-1.29967
 668.33;  187.202;  187.268;  191.776;-0.06567
 668.91;  178.410;  180.791;  180.984;-2.38067
 669.48;  193.261;  194.144;  195.022;-0.88267
 670.05;  180.635;  180.894;  181.436;-0.25867
 670.62;  201.129;  200.281;  200.111; 0.84833
 671.19;  196.467;  198.511;  199.468;-2.04367
 671.76;  203.496;  203.866;  204.944;-0.36967
 672.34;  186.889;  186.975;  187.849;-0.08567
 672.91;  194.408;  195.368;  196.127;-0.95967
 673.48;  186.460;  186.802;  188.041;-0.34167
 674.05;  209.191;  209.573;  210.493;-0.38167
 674.62;  205.751;  207.087;  207.026;-1.33567
 675.19;  197.439;  197.948;  199.583;-0.50867
 675.77;  201.312;  201.447;  203.236;-0.13467
 676.34;  176.183;  175.769;  176.251; 0.41433
 676.91;  190.197;  191.238;  192.447;-1.04067
 677.48;  194.298;  196.391;  196.000;-2.09267
 678.05;  192.546;  192.746;  194.424;-0.19967
 678.62;  203.401;  204.736;  206.241;-1.33468
 679.19;  196.922;  198.563;  199.488;-1.64067
 679.77;  190.830;  190.283;  191.219; 0.54733
 680.34;  158.850;  160.541;  160.329;-1.69067
 680.91;  188.517;  188.648;  189.018;-0.13067
 681.48;  191.671;  191.487;  192.089; 0.18433
 682.05;  196.650;  197.339;  198.306;-0.68867
 682.62;  167.749;  168.150;  167.647;-0.40067
 683.19;  185.597;  185.438;  187.455; 0.15933
 683.76;  194.570;  195.381;  195.830;-0.81067
 684.33;  196.683;  197.338;  199.173;-0.65467
 684.90;  175.390;  176.698;  176.952;-1.30767
 685.48;  177.107;  178.017;  180.005;-0.90967
 686.05;  174.260;  175.510;  177.615;-1.24967
 686.62;  194.556;  194.606;  197.183;-0.04967
 687.19;  174.395;  174.969;  176.679;-0.57367
 687.76;  186.015;  185.914;  187.707; 0.10133
 688.33;  188.211;  189.154;  190.216;-0.94267
 688.90;  185.968;  186.846;  187.084;-0.87767
 689.47;  147.414;  148.416;  148.484;-1.00167
 690.04;  173.112;  174.738;  177.908;-1.62567
 690.61;  181.657;  182.567;  191.835;-0.90967
 691.18;  166.100;  166.696;  172.036;-0.59567
 691.75;  206.584;  208.024;  209.598;-1.43967
 692.32;  188.362;  189.873;  191.508;-1.51067
 692.89;  206.895;  207.457;  209.013;-0.56167
 693.46;  190.567;  191.251;  194.434;-0.68367
 694.03;  183.277;  184.158;  185.955;-0.88067
 694.60;  193.814;  195.104;  198.362;-1.28967
 695.17;  187.662;  188.694;  198.056;-1.03167
 695.74;  175.362;  176.725;  295.952;-1.36267
 696.31;  184.440;  184.744;  526.357;-0.30367
 696.88;  193.734;  194.622;  436.680;-0.88767
 697.45;  177.467;  177.704;  217.769;-0.23667
 698.02;  161.841;  163.792;  171.529;-1.95067
 698.59;  164.391;  165.358;  171.783;-0.96667
 699.16;  170.070;  171.238;  173.378;-1.16767
 699.73;  183.880;  184.024;  185.243;-0.14367
 700.30;  170.891;  172.336;  173.389;-1.44467
 700.87;  189.925;  191.384;  192.910;-1.45867
 701.44;  189.191;  189.353;  190.847;-0.16167
 702.01;  182.579;  183.724;  185.005;-1.14468
 702.58;  204.947;  206.278;  206.841;-1.33067
 703.15;  170.221;  170.817;  172.191;-0.59567
 703.72;  190.972;  192.032;  192.738;-1.05967
 704.29;  164.720;  165.421;  167.346;-0.70167
 704.86;  196.423;  197.423;  199.260;-1.00068
 705.43;  189.155;  189.620;  191.919;-0.46567
 706.00;  183.763;  185.232;  222.417;-1.46967
 706.57;  178.991;  179.068;  262.230;-0.07767
 707.14;  172.699;  173.284;  221.456;-0.58567
 707.70;  209.557;  210.068;  218.764;-0.51167
 708.27;  176.783;  178.088;  179.997;-1.30567
 708.84;  175.146;  176.225;  178.009;-1.07967
 709.41;  158.304;  159.275;  159.808;-0.97167
 709.98;  201.701;  203.382;  204.521;-1.68167
 710.55;  178.163;  178.573;  181.279;-0.41067
 711.12;  197.275;  197.937;  198.254;-0.66267
 711.69;  193.605;  194.577;  194.719;-0.97267
 712.26;  192.511;  194.317;  194.505;-1.80667
 712.83;  207.912;  209.515;  210.775;-1.60367
 713.39;  194.363;  194.495;  195.453;-0.13268
 713.96;  204.889;  205.268;  212.738;-0.37967
 714.53;  191.474;  192.113;  206.613;-0.63967
 715.10;  190.918;  192.089;  202.143;-1.17167
 715.67;  172.516;  173.571;  175.208;-1.05567
 716.24;  191.987;  193.501;  193.437;-1.51467
 716.81;  209.907;  211.803;  211.046;-1.89667
 717.37;  193.634;  194.800;  195.090;-1.16667
 717.94;  200.325;  201.338;  202.676;-1.01367
 718.51;  202.343;  202.490;  203.290;-0.14767
 719.08;  184.486;  184.744;  185.101;-0.25867
 719.65;  210.738;  211.737;  211.135;-0.99967
 720.22;  203.966;  206.163;  206.097;-2.19768
 720.78;  198.586;  199.915;  198.790;-1.32967
 721.35;  184.331;  185.004;  186.655;-0.67367
 721.92;  212.586;  213.502;  214.834;-0.91567
 722.49;  200.453;  201.629;  202.874;-1.17567
 723.06;  197.954;  196.995;  198.919; 0.95933
 723.63;  167.222;  168.261;  168.342;-1.03867
 724.19;  208.751;  210.584;  210.839;-1.83267
 724.76;  186.657;  187.411;  189.063;-0.75367
 725.33;  196.656;  197.897;  199.054;-1.24067
 725.90;  216.031;  216.085;  219.058;-0.05367
 726.46;  196.279;  199.064;  233.585;-2.78467
 727.03;  214.595;  216.827;  315.146;-2.23167
 727.60;  158.788;  158.577;  231.534; 0.21133
 728.17;  200.786;  201.250;  215.136;-0.46367
 728.74;  205.576;  207.677;  209.799;-2.10067
 729.30;  190.248;  190.703;  191.518;-0.45467
 729.87;  189.689;  189.602;  192.096; 0.08733
 730.44;  214.683;  214.480;  216.598; 0.20333
 731.01;  205.709;  206.154;  208.547;-0.44467
 731.57;  188.133;  188.769;  190.066;-0.63567
 732.14;  183.664;  185.238;  186.899;-1.57367
 732.71;  188.314;  189.504;  189.752;-1.18967
 733.28;  224.517;  225.996;  228.133;-1.47867
 733.84;  183.550;  184.066;  185.858;-0.51567
 734.41;  182.494;  183.478;  184.891;-0.98368
 734.98;  203.939;  205.839;  207.761;-1.89968
 735.54;  219.677;  220.476;  221.853;-0.79868
 736.11;  187.403;  188.486;  191.575;-1.08267
 736.68;  182.603;  181.556;  186.264; 1.04733
 737.25;  191.404;  192.285;  210.177;-0.88067
 737.81;  202.589;  204.735;  317.032;-2.14567
 738.38;  197.041;  197.338;  364.691;-0.29667
 738.95;  213.567;  214.190;  282.287;-0.62267
 739.51;  207.322;  207.651;  217.624;-0.32867
 740.08;  203.250;  203.803;  207.208;-0.55267
 740.65;  186.114;  186.757;  188.889;-0.64267
 741.21;  200.262;  201.619;  203.778;-1.35667
 741.78;  204.499;  205.043;  208.168;-0.54368
 742.35;  202.734;  202.635;  203.225; 0.09933
 742.91;  216.290;  218.064;  219.878;-1.77367
 743.48;  201.240;  202.020;  203.324;-0.77967
 744.05;  195.421;  194.598;  196.786; 0.82333
 744.61;  201.766;  202.621;  204.593;-0.85467
 745.18;  184.674;  184.489;  187.125; 0.18533
 745.75;  196.913;  198.902;  201.497;-1.98867
 746.31;  226.389;  227.117;  230.891;-0.72767
 746.88;  196.113;  197.463;  200.522;-1.34967
 747.44;  197.535;  196.948;  201.675; 0.58733
 748.01;  225.038;  225.727;  231.329;-0.68867
 748.58;  205.690;  206.459;  213.293;-0.76867
 749.14;  193.891;  195.320;  226.526;-1.42867
 749.71;  193.992;  194.992;  451.231;-0.99967
 750.28;  199.635;  200.796;  683.607;-1.16067
 750.84;  201.731;  203.385;  549.218;-1.65367
 751.41;  188.110;  188.430;  400.206;-0.31967
 751.97;  199.684;  199.507;  287.792; 0.17732
 752.54;  192.298;  193.296;  213.887;-0.99767
 753.11;  189.274;  190.444;  198.839;-1.16967
 753.67;  199.369;  200.677;  204.969;-1.30767
 754.24;  192.046;  192.725;  196.031;-0.67867
 754.80;  218.551;  218.439;  221.209; 0.11233
 755.37;  176.421;  177.462;  180.823;-1.04067
 755.93;  211.340;  212.676;  215.748;-1.33567
 756.50;  202.042;  202.908;  204.941;-0.86567
 757.07;  207.365;  208.584;  211.182;-1.21867
 757.63;  180.553;  181.690;  183.805;-1.13667
 758.20;  182.883;  183.849;  187.333;-0.96567
 758.76;  192.322;  192.298;  194.976; 0.02333
 759.33;  163.994;  163.928;  168.252; 0.06533
 759.89;  189.871;  191.178;  196.370;-1.30767
 760.46;  192.698;  193.816;  198.611;-1.11867
 761.02;  204.136;  206.116;  212.126;-1.98067
 761.59;  187.627;  188.496;  198.304;-0.86967
 762.15;  202.921;  204.001;  247.196;-1.08067
 762.72;  189.540;  191.263;  649.960;-1.72368
 763.28;  179.605;  179.637; 1239.594;-0.03267
 763.85;  193.339;  194.628;  891.355;-1.28967
 764.41;  198.700;  198.561;  332.429; 0.13833
 764.98;  203.356;  204.439;  229.754;-1.08367
 765.54;  201.235;  201.436;  213.852;-0.20167
 766.11;  196.348;  198.048;  202.867;-1.70067
 766.67;  173.055;  174.369;  178.359;-1.31467
 767.24;  200.106;  200.485;  202.687;-0.37967
 767.80;  187.933;  188.137;  191.715;-0.20467
 768.37;  185.735;  185.599;  189.443; 0.13533
 768.93;  184.908;  185.871;  189.093;-0.96367
 769.50;  194.125;  195.132;  198.465;-1.00767
 770.06;  185.306;  185.446;  190.397;-0.14067
 770.63;  190.680;  192.135;  199.082;-1.45567
 771.19;  187.776;  189.325;  227.151;-1.54967
 771.75;  175.336;  175.993;  467.412;-0.65767
 772.32;  178.063;  179.042;  655.670;-0.97967
 772.88;  194.285;  194.500;  430.088;-0.21567
 773.45;  186.471;  186.976;  224.071;-0.50567
 774.01;  189.321;  189.634;  198.828;-0.31367
 774.58;  185.988;  187.539;  194.013;-1.55167
 775.14;  207.305;  208.743;  209.763;-1.43867
 775.70;  206.649;  206.499;  210.502; 0.14933
 776.27;  198.238;  199.065;  201.405;-0.82667
 776.83;  203.118;  202.232;  204.461; 0.88632
 777.40;  179.391;  181.002;  181.585;-1.61067
 777.96;  181.972;  182.512;  183.867;-0.53967
 778.52;  207.442;  207.355;  207.743; 0.08733
 779.09;  199.333;  200.702;  201.800;-1.36867
 779.65;  201.751;  201.821;  203.406;-0.06967
 780.22;  186.139;  186.609;  187.576;-0.46967
 780.78;  215.164;  214.842;  214.658; 0.32233
 781.34;  212.908;  214.054;  214.646;-1.14567
 781.91;  189.706;  190.683;  191.584;-0.97667
 782.47;  231.331;  231.725;  232.910;-0.39367
 783.03;  209.850;  211.298;  211.398;-1.44767
 783.60;  190.189;  190.005;  191.427; 0.18433
 784.16;  218.360;  219.009;  220.687;-0.64867
 784.72;  190.549;  190.809;  193.537;-0.25967
 785.29;  198.547;  199.705;  201.212;-1.15767
 785.85;  219.283;  220.183;  220.478;-0.89967
 786.41;  203.834;  205.674;  206.244;-1.83967
 786.98;  196.479;  195.635;  197.510; 0.84433
 787.54;  216.408;  217.953;  218.860;-1.54467
 788.10;  194.004;  196.271;  196.332;-2.26667
 788.67;  208.487;  209.696;  210.754;-1.20867
 789.23;  197.072;  197.981;  198.879;-0.90867
 789.79;  211.515;  210.325;  213.134; 1.19033
 790.36;  190.572;  191.447;  191.785;-0.87467
 790.92;  205.620;  205.343;  206.587; 0.27733
 791.48;  190.344;  190.716;  193.516;-0.37167
 792.05;  215.343;  216.545;  218.837;-1.20167
 792.61;  201.137;  201.726;  203.583;-0.58867
 793.17;  208.815;  209.030;  215.509;-0.21467
 793.73;  210.671;  211.029;  244.626;-0.35767
 794.30;  207.071;  208.320;  356.072;-1.24867
 794.86;  218.983;  220.019;  393.666;-1.03567
 795.42;  200.084;  201.154;  263.159;-1.06967
 795.98;  200.733;  199.960;  211.893; 0.77332
 796.55;  190.137;  191.526;  195.486;-1.38867
 797.11;  207.621;  209.581;  212.302;-1.95967
 797.67;  240.126;  242.028;  245.084;-1.90167
 798.23;  180.145;  181.340;  184.555;-1.19467
 798.80;  215.317;  215.475;  218.281;-0.15767
 799.36;  215.994;  217.310;  232.696;-1.31567
 799.92;  209.355;  210.674;  310.328;-1.31867
 800.48;  217.406;  217.297;  413.728; 0.10933
 801.05;  210.492;  212.953;  422.721;-2.46067
 801.61;  210.002;  211.410;  353.586;-1.40767
 802.17;  200.395;  202.600;  244.980;-2.20467
 802.73;  216.063;  217.123;  224.876;-1.05967
 803.29;  182.832;  184.312;  188.525;-1.47967
 803.86;  214.063;  214.539;  216.753;-0.47567
 804.42;  217.521;  218.292;  221.554;-0.77067
 804.98;  233.769;  233.557;  235.995; 0.21233
 805.54;  217.127;  217.794;  220.379;-0.66667
 806.10;  213.508;  215.070;  216.959;-1.56167
 806.66;  247.524;  247.272;  249.895; 0.25233
 807.23;  219.984;  220.999;  223.658;-1.01467
 807.79;  212.997;  214.425;  216.850;-1.42767
 808.35;  224.378;  224.428;  227.824;-0.04967
 808.91;  202.690;  203.629;  212.987;-0.93867
 809.47;  192.907;  194.215;  264.386;-1.30767
 810.03;  206.595;  207.620;  392.351;-1.02467
 810.60;  234.312;  235.782;  507.373;-1.46967
 811.16;  198.836;  200.082;  629.834;-1.24567
 811.72;  236.768;  237.304;  583.026;-0.53567
 812.28;  206.078;  207.712;  305.465;-1.63367
 812.84;  226.325;  227.567;  245.167;-1.24267
 813.40;  237.656;  238.954;  247.112;-1.29867
 813.96;  227.323;  228.043;  235.064;-0.72067
 814.52;  226.319;  227.148;  230.727;-0.82967
 815.09;  212.619;  214.099;  217.536;-1.48067
 815.65;  228.086;  228.457;  230.944;-0.37167
 816.21;  220.362;  221.312;  222.389;-0.95067
 816.77;  223.760;  224.432;  225.660;-0.67267
 817.33;  220.589;  221.692;  222.182;-1.10367
 817.89;  217.472;  218.744;  219.820;-1.27267
 818.45;  251.081;  251.049;  252.643; 0.03133
 819.01;  228.643;  228.098;  231.281; 0.54433
 819.57;  223.495;  224.864;  224.944;-1.36967
 820.13;  221.775;  222.154;  224.373;-0.37967
 820.69;  240.574;  241.931;  243.814;-1.35767
 821.25;  219.162;  219.341;  220.494;-0.17967
 821.82;  210.696;  210.393;  212.805; 0.30233
 822.38;  228.631;  229.679;  231.349;-1.04867
 822.94;  229.970;  230.592;  232.561;-0.62267
 823.50;  227.785;  228.000;  228.708;-0.21567
 824.06;  226.403;  226.497;  230.499;-0.09467
 824.62;  217.242;  218.567;  223.250;-1.32567
 825.18;  251.387;  251.837;  282.566;-0.45067
 825.74;  209.416;  208.962;  403.395; 0.45333
 826.30;  210.087;  208.177;  526.098; 1.90933
 826.86;  212.612;  213.238;  384.641;-0.62667
 827.42;  230.709;  232.026;  267.421;-1.31767
 827.98;  234.741;  235.467;  242.654;-0.72668
 828.54;  221.035;  220.713;  226.714; 0.32133
 829.10;  212.895;  213.448;  216.639;-0.55367
 829.66;  234.093;  235.338;  237.048;-1.24567
 830.22;  217.555;  217.629;  218.789;-0.07367
 830.78;  203.926;  204.590;  205.779;-0.66367
 831.34;  218.707;  218.723;  221.566;-0.01567
 831.90;  230.794;  231.867;  232.594;-1.07267
 832.46;  219.347;  220.778;  222.131;-1.43067
 833.02;  192.026;  192.352;  193.142;-0.32567
 833.58;  225.008;  224.886;  226.969; 0.12233
 834.14;  215.686;  216.980;  217.512;-1.29367
 834.70;  226.908;  228.933;  228.005;-2.02468
 835.25;  193.819;  196.040;  196.137;-2.22067
 835.81;  204.144;  204.502;  206.325;-0.35767
 836.37;  215.893;  215.627;  216.196; 0.26633
 836.93;  227.615;  228.608;  229.202;-0.99268
 837.49;  223.087;  224.590;  224.375;-1.50267
 838.05;  198.184;  199.422;  201.486;-1.23767
 838.61;  209.408;  209.687;  213.059;-0.27867
 839.17;  206.362;  207.258;  211.516;-0.89567
 839.73;  216.532;  217.003;  251.805;-0.47067
 840.29;  225.199;  225.061;  351.164; 0.13833
 840.85;  201.812;  202.626;  347.146;-0.81367
 841.41;  213.757;  213.673;  322.252; 0.08433
 841.97;  213.713;  213.104;  411.688; 0.60933
 842.52;  213.202;  213.883;  414.539;-0.68067
 843.08;  200.201;  199.353;  272.665; 0.84833
 843.64;  204.290;  205.320;  219.877;-1.02967
 844.20;  213.590;  214.437;  219.792;-0.84667
 844.76;  224.392;  224.481;  227.489;-0.08867
 845.32;  180.752;  181.574;  182.083;-0.82167
 845.88;  209.083;  210.570;  212.597;-1.48667
 846.44;  219.250;  220.229;  221.439;-0.97867
 846.99;  229.417;  231.162;  234.014;-1.74467
 847.55;  210.768;  210.301;  211.176; 0.46733
 848.11;  181.201;  181.391;  184.253;-0.18967
 848.67;  208.130;  208.151;  209.677;-0.02067
 849.23;  186.477;  186.091;  187.354; 0.38633
 849.79;  204.976;  206.661;  207.754;-1.68467
 850.34;  213.168;  213.568;  217.249;-0.39967
 850.90;  185.744;  186.282;  198.598;-0.53767
 851.46;  222.468;  223.285;  284.448;-0.81667
 852.02;  221.085;  222.700;  310.051;-1.61467
 852.58;  182.304;  182.035;  226.479; 0.26933
 853.13;  201.669;  202.097;  212.880;-0.42767
 853.69;  203.212;  204.621;  207.591;-1.40867
 854.25;  239.075;  239.574;  240.958;-0.49867
 854.81;  199.169;  201.336;  201.292;-2.16667
 855.37;  203.577;  203.339;  203.110; 0.23833
 855.92;  224.294;  224.481;  225.933;-0.18667
 856.48;  203.847;  204.465;  204.808;-0.61767
 857.04;  223.832;  224.955;  224.937;-1.12267
 857.60;  221.489;  222.493;  221.691;-1.00367
 858.16;  216.920;  217.010;  217.639;-0.08967
 858.71;  227.697;  228.949;  227.251;-1.25167
 859.27;  209.264;  209.793;  210.295;-0.52867
 859.83;  209.512;  209.726;  211.887;-0.21367
 860.39;  206.594;  206.651;  207.988;-0.05667
 860.94;  207.468;  208.686;  208.898;-1.21767
 861.50;  200.520;  201.573;  202.645;-1.05267
 862.06;  215.090;  216.401;  216.264;-1.31067
 862.61;  214.709;  215.224;  216.371;-0.51467
 863.17;  185.962;  186.584;  187.515;-0.62167
 863.73;  221.811;  222.909;  223.272;-1.09767
 864.29;  210.542;  211.539;  211.240;-0.99667
 864.84;  218.609;  219.288;  219.672;-0.67867
 865.40;  218.152;  218.929;  219.038;-0.77667
 865.96;  202.482;  204.142;  208.804;-1.65967
 866.51;  209.784;  210.481;  222.897;-0.69767
 867.07;  220.599;  219.905;  228.737; 0.69333
 867.63;  234.398;  233.976;  236.493; 0.42133
 868.18;  228.702;  228.459;  229.520; 0.24233
 868.74;  229.537;  230.929;  230.043;-1.39267
 869.30;  212.384;  213.394;  213.752;-1.01067
 869.86;  199.906;  199.934;  201.508;-0.02867
 870.41;  237.246;  237.689;  237.917;-0.44367
 870.97;  208.472;  209.778;  209.444;-1.30667
 871.52;  211.966;  212.214;  212.542;-0.24867
 872.08;  234.761;  233.536;  235.584; 1.22433
 872.64;  216.326;  218.116;  218.988;-1.79067
 873.19;  194.235;  194.531;  195.874;-0.29667
 873.75;  208.199;  208.787;  209.072;-0.58867
 874.31;  203.543;  203.068;  203.565; 0.47433
 874.86;  224.556;  225.968;  226.270;-1.41267
 875.42;  235.677;  236.797;  237.359;-1.12068
 875.98;  217.656;  217.102;  218.238; 0.55333
 876.53;  216.570;  217.915;  218.441;-1.34567
 877.09;  235.648;  235.408;  237.172; 0.23933
 877.64;  217.774;  218.756;  219.847;-0.98267
 878.20;  216.137;  215.559;  217.135; 0.57733
 878.76;  229.044;  230.206;  230.433;-1.16267
 879.31;  189.600;  190.849;  191.037;-1.24967
 879.87;  223.013;  223.753;  225.200;-0.74067
 880.42;  217.603;  217.732;  218.426;-0.12967
 880.98;  206.097;  206.360;  206.335;-0.26367
 881.54;  238.683;  241.020;  239.657;-2.33767
 882.09;  215.695;  216.433;  217.616;-0.73867
 882.65;  232.038;  233.714;  233.592;-1.67667
 883.20;  226.985;  227.058;  227.445;-0.07367
 883.76;  228.275;  228.708;  229.491;-0.43367
 884.31;  221.964;  222.743;  222.772;-0.77967
 884.87;  251.337;  252.548;  252.670;-1.21167
 885.42;  214.356;  214.335;  214.634; 0.02033
 885.98;  202.423;  202.289;  203.171; 0.13333
 886.53;  222.566;  223.002;  221.606;-0.43667
 887.09;  233.586;  232.955;  233.277; 0.63033
 887.65;  224.255;  224.710;  227.075;-0.45567
 888.20;  218.466;  220.916;  219.081;-2.45067
 888.76;  215.251;  216.685;  216.553;-1.43467
 889.31;  227.016;  227.103;  227.063;-0.08767
 889.87;  226.901;  226.996;  226.933;-0.09567
 890.42;  217.914;  218.058;  219.404;-0.14467
 890.98;  223.663;  223.814;  224.217;-0.15168
 891.53;  197.241;  198.607;  198.956;-1.36667
 892.09;  232.909;  234.420;  233.343;-1.51167
 892.64;  216.374;  216.970;  217.915;-0.59668
 893.19;  219.618;  221.025;  221.488;-1.40767
 893.75;  205.191;  206.427;  206.559;-1.23667
 894.30;  235.207;  234.563;  236.042; 0.64333
 894.86;  203.824;  204.328;  205.145;-0.50467
 895.41;  241.253;  242.056;  242.484;-0.80367
 895.97;  205.919;  206.681;  207.451;-0.76267
 896.52;  241.801;  242.153;  244.098;-0.35267
 897.08;  225.197;  226.264;  227.097;-1.06767
 897.63;  240.106;  240.613;  242.463;-0.50767
 898.19;  220.740;  222.486;  221.941;-1.74667
 898.74;  242.268;  242.666;  241.964;-0.39867
 899.29;  241.131;  240.616;  241.423; 0.51433
 899.85;  215.049;  216.887;  217.840;-1.83867
 900.40;  222.825;  223.436;  224.623;-0.61167
 900.96;  224.434;  225.042;  224.386;-0.60867
 901.51;  220.418;  221.581;  221.344;-1.16367
 902.06;  223.776;  225.004;  225.298;-1.22868
 902.62;  234.888;  235.807;  235.915;-0.91967
 903.17;  231.060;  231.255;  232.176;-0.19567
 903.73;  233.517;  233.905;  235.707;-0.38867
 904.28;  215.690;  217.238;  216.385;-1.54867
 904.83;  248.558;  249.294;  249.126;-0.73667
 905.39;  201.812;  201.924;  202.872;-0.11267
 905.94;  227.345;  229.093;  229.504;-1.74867
 906.50;  237.406;  239.345;  239.323;-1.93967
 907.05;  217.917;  218.611;  219.363;-0.69467
 907.60;  235.877;  234.657;  236.963; 1.21933
 908.16;  225.201;  226.200;  228.085;-0.99967
 908.71;  227.990;  228.325;  229.913;-0.33567
 909.26;  231.481;  232.342;  233.397;-0.86167
 909.82;  224.136;  224.382;  227.376;-0.24667
 910.37;  227.412;  228.045;  235.399;-0.63367
 910.92;  237.518;  238.386;  281.745;-0.86867
 911.48;  235.940;  236.515;  481.890;-0.57567
 912.03;  210.564;  210.011;  613.633; 0.55232
 912.58;  226.140;  227.942;  476.373;-1.80267
 913.14;  230.978;  231.486;  301.799;-0.50867
 913.69;  253.730;  255.066;  269.488;-1.33667
 914.24;  215.094;  215.870;  222.219;-0.77667
 914.79;  214.591;  214.815;  218.365;-0.22467
 915.35;  231.567;  231.504;  234.392; 0.06233
 915.90;  237.352;  237.419;  240.487;-0.06767
 916.45;  215.809;  217.425;  218.208;-1.61667
 917.01;  231.759;  232.757;  232.894;-0.99867
 917.56;  225.356;  226.029;  227.311;-0.67367
 918.11;  224.778;  225.175;  226.003;-0.39767
 918.66;  219.163;  220.165;  220.789;-1.00268
 919.22;  234.314;  234.901;  236.207;-0.58767
 919.77;  217.697;  218.968;  221.133;-1.27167
 920.32;  222.790;  223.321;  224.244;-0.53168
 920.87;  228.622;  229.100;  232.864;-0.47868
 921.43;  220.153;  221.571;  250.486;-1.41868
 921.98;  208.108;  208.602;  276.799;-0.49467
 922.53;  212.379;  213.204;  271.522;-0.82567
 923.08;  223.328;  224.258;  245.586;-0.93067
 923.64;  225.079;  225.687;  232.794;-0.60867
 924.19;  226.741;  228.536;  231.064;-1.79567
 924.74;  208.267;  208.642;  211.372;-0.37567
 925.29;  257.111;  257.927;  260.667;-0.81667
 925.84;  232.641;  233.893;  234.899;-1.25267
 926.40;  211.777;  212.756;  212.506;-0.97967
 926.95;  212.252;  214.443;  214.402;-2.19167
 927.50;  215.050;  214.218;  216.696; 0.83132
 928.05;  224.673;  226.003;  226.066;-1.33067
 928.60;  209.855;  212.368;  210.903;-2.51367
 929.15;  226.715;  227.681;  228.948;-0.96667
 929.71;  238.353;  238.590;  238.862;-0.23767
 930.26;  218.662;  219.878;  220.145;-1.21667
 930.81;  225.111;  225.770;  226.373;-0.65967
 931.36;  234.387;  235.038;  235.832;-0.65167
 931.91;  241.410;  240.767;  241.662; 0.64233
 932.46;  237.018;  237.054;  237.655;-0.03667
 933.02;  223.983;  225.029;  224.869;-1.04667
 933.57;  209.845;  212.139;  211.497;-2.29467
 934.12;  211.805;  211.871;  212.075;-0.06667
 934.67;  229.146;  227.530;  232.336; 1.61533
 935.22;  219.912;  220.625;  225.680;-0.71367
 935.77;  246.054;  247.085;  247.265;-1.03167
 936.32;  231.389;  231.228;  233.242; 0.16033
 936.87;  232.984;  233.324;  234.404;-0.34067
 937.42;  228.745;  229.450;  230.149;-0.70567
 937.98;  208.415;  208.921;  211.733;-0.50667
 938.53;  221.253;  220.828;  221.566; 0.42433
 939.08;  210.676;  211.982;  213.091;-1.30667
 939.63;  233.646;  233.619;  233.627; 0.02633
 940.18;  243.963;  244.439;  245.398;-0.47668
 940.73;  222.430;  224.569;  224.525;-2.13967
 941.28;  208.146;  209.417;  210.218;-1.27167
 941.83;  216.831;  217.913;  218.300;-1.08267
 942.38;  211.436;  212.660;  212.832;-1.22467
 942.93;  227.981;  229.033;  228.633;-1.05267
 943.48;  225.811;  226.126;  227.078;-0.31567
 944.03;  210.783;  210.595;  210.439; 0.18732
 944.58;  214.840;  216.394;  217.194;-1.55467
 945.13;  210.451;  212.115;  212.387;-1.66467
 945.68;  204.696;  205.026;  206.217;-0.33067
 946.23;  212.710;  214.309;  213.880;-1.59967
 946.79;  213.004;  213.919;  214.171;-0.91567
 947.34;  232.798;  232.970;  232.911;-0.17267
 947.89;  238.408;  238.454;  238.836;-0.04667
 948.44;  217.410;  218.034;  219.284;-0.62467
 948.99;  215.677;  216.337;  216.924;-0.66067
 949.54;  230.582;  231.747;  230.186;-1.16567
 950.09;  213.969;  215.315;  216.219;-1.34667
 950.64;  213.892;  214.496;  213.164;-0.60467
 951.19;  193.960;  194.598;  195.816;-0.63867
 951.73;  187.298;  187.468;  187.208;-0.17067
 952.28;  228.731;  230.153;  230.870;-1.42267
 952.83;  222.567;  223.607;  222.726;-1.04067
 953.38;  241.781;  243.162;  243.581;-1.38167
 953.93;  215.901;  217.030;  216.650;-1.12967
 954.48;  217.793;  217.431;  219.371; 0.36133
 955.03;  221.218;  222.576;  222.641;-1.35868
 955.58;  220.583;  220.979;  220.638;-0.39667
 956.13;  191.074;  192.731;  192.119;-1.65767
 956.68;  202.092;  203.079;  204.813;-0.98767
 957.23;  190.865;  191.531;  190.369;-0.66667
 957.78;  203.018;  203.775;  204.342;-0.75767
 958.33;  183.927;  183.503;  184.908; 0.42333
 958.88;  211.652;  212.988;  214.074;-1.33667
 959.43;  219.165;  220.040;  220.660;-0.87568
 959.98;  206.139;  206.625;  207.110;-0.48667
 960.53;  234.863;  234.353;  235.735; 0.50933
 961.07;  204.270;  205.899;  205.337;-1.62967
 961.62;  249.233;  249.831;  250.070;-0.59867
 962.17;  211.840;  212.941;  213.949;-1.10167
 962.72;  216.286;  216.711;  217.978;-0.42567
 963.27;  216.445;  218.041;  218.272;-1.59667
 963.82;  204.738;  206.243;  207.269;-1.50567
 964.37;  227.006;  227.685;  240.124;-0.67967
 964.92;  208.466;  208.531;  264.450;-0.06567
 965.46;  196.324;  196.744;  280.889;-0.42067
 966.01;  208.591;  209.771;  262.804;-1.18067
 966.56;  222.011;  222.364;  237.515;-0.35367
 967.11;  224.354;  224.708;  227.550;-0.35467
 967.66;  209.793;  211.547;  213.586;-1.75467
 968.21;  206.034;  207.716;  208.194;-1.68267
 968.75;  224.983;  225.245;  224.204;-0.26267
 969.30;  215.117;  216.954;  216.833;-1.83767
 969.85;  233.555;  234.176;  233.361;-0.62167
 970.40;  219.624;  222.700;  220.821;-3.07667
 970.95;  225.716;  226.417;  226.071;-0.70167
 971.50;  222.990;  223.073;  223.994;-0.08367
 972.04;  223.877;  223.538;  225.460; 0.33832
 972.59;  232.558;  234.311;  233.089;-1.75367
 973.14;  225.546;  226.251;  226.225;-0.70567
 973.69;  234.493;  235.170;  235.642;-0.67767
 974.24;  218.072;  219.690;  220.206;-1.61867
 974.78;  214.483;  216.344;  215.873;-1.86167
 975.33;  244.507;  245.614;  245.834;-1.10767
 975.88;  228.761;  229.418;  229.422;-0.65767
 976.43;  226.663;  227.936;  227.200;-1.27367
 976.97;  219.674;  221.542;  220.970;-1.86867
 977.52;  208.581;  210.631;  212.176;-2.05067
 978.07;  254.578;  256.094;  261.140;-1.51667
 978.62;  246.328;  245.501;  249.999; 0.82633
 979.16;  242.577;  243.324;  245.899;-0.74767
 979.71;  210.479;  210.246;  211.338; 0.23233
 980.26;  231.344;  232.162;  233.353;-0.81867
 980.81;  229.468;  231.327;  230.718;-1.85967
 981.35;  253.509;  254.473;  254.809;-0.96467
 981.90;  242.738;  243.010;  241.517;-0.27267
 982.45;  239.842;  240.057;  240.405;-0.21567
 982.99;  241.622;  241.941;  242.664;-0.31967
 983.54;  239.212;  239.979;  239.293;-0.76767
 984.09;  229.570;  230.442;  231.355;-0.87267
 984.63;  227.001;  228.876;  228.448;-1.87567
 985.18;  241.089;  242.114;  242.377;-1.02567
 985.73;  235.711;  235.992;  235.860;-0.28168
 986.27;  224.253;  225.317;  224.967;-1.06467
 986.82;  232.042;  232.007;  233.190; 0.03433
 987.37;  246.477;  246.398;  246.808; 0.07833
 987.91;  236.488;  236.684;  236.652;-0.19667
 988.46;  245.383;  244.922;  247.721; 0.46033
 989.01;  238.360;  239.168;  237.572;-0.80867
 989.55;  240.535;  240.845;  241.214;-0.31068
 990.10;  247.190;  247.882;  248.030;-0.69267
 990.65;  262.763;  264.063;  262.831;-1.30068
 991.19;  235.093;  236.583;  236.217;-1.49068
 991.74;  252.642;  255.060;  254.016;-2.41867
 992.29;  242.825;  242.377;  243.190; 0.44733
 992.83;  254.780;  255.509;  254.085;-0.72967
 993.38;  247.901;  248.869;  247.359;-0.96867
 993.92;  226.979;  228.304;  226.472;-1.32567
 994.47;  216.887;  216.438;  216.807; 0.44833
 995.02;  235.774;  236.276;  236.735;-0.50267
 995.56;  254.973;  256.141;  256.692;-1.16867
 996.11;  246.069;  247.013;  246.882;-0.94467
 996.65;  246.282;  247.453;  247.876;-1.17167
 997.20;  240.196;  240.169;  240.294; 0.02633
 997.75;  239.016;  239.996;  239.437;-0.98067
 998.29;  215.565;  216.003;  216.133;-0.43867
 998.84;  243.526;  244.933;  245.329;-1.40767
 999.38;  244.615;  246.476;  244.812;-1.86167
 999.93;  260.188;  261.243;  261.675;-1.05568
1000.47;  259.314;  260.203;  260.831;-0.88967
1001.02;  252.518;  254.354;  253.386;-1.83667
1001.56;  239.412;  240.741;  239.780;-1.32967
1002.11;  230.774;  231.050;  230.445;-0.27667
1002.65;  222.824;  224.299;  223.243;-1.47567
1003.20;  231.289;  232.482;  231.881;-1.19367
1003.75;  265.147;  265.828;  266.036;-0.68167
1004.29;  232.309;  234.636;  233.303;-2.32767
1004.84;  219.186;  219.628;  220.546;-0.44267
1005.38;  221.800;  222.757;  222.859;-0.95767
1005.93;  240.515;  242.295;  241.364;-1.78067
1006.47;  219.626;  220.477;  220.692;-0.85167
1007.02;  227.058;  227.889;  227.662;-0.83167
1007.56;  241.785;  243.707;  242.798;-1.92267
1008.11;  248.291;  250.297;  249.411;-2.00667
1008.65;  206.749;  207.523;  207.079;-0.77468
1009.19;  235.942;  235.898;  236.390; 0.04333
1009.74;  229.954;  230.551;  231.223;-0.59767
1010.28;  233.376;  233.466;  234.215;-0.09067
1010.83;  242.413;  242.042;  242.437; 0.37033
1011.37;  234.906;  235.158;  235.037;-0.25267
1011.92;  233.710;  233.780;  235.208;-0.07067
1012.46;  226.533;  227.256;  230.410;-0.72367
1013.01;  262.042;  262.076;  282.128;-0.03467
1013.55;  232.209;  232.732;  261.377;-0.52367
1014.09;  227.705;  228.539;  247.080;-0.83467
1014.64;  227.177;  227.787;  235.199;-0.61067
1015.18;  224.304;  225.081;  226.875;-0.77767
1015.73;  218.562;  220.280;  221.345;-1.71867
1016.27;  239.108;  240.147;  239.850;-1.03967
1016.82;  233.052;  232.308;  232.899; 0.74333
1017.36;  224.210;  224.141;  224.463; 0.06833
1017.90;  213.729;  214.151;  214.821;-0.42267
1018.45;  209.393;  209.241;  209.010; 0.15133
1018.99;  210.719;  211.398;  213.271;-0.67967
1019.53;  199.853;  200.198;  199.948;-0.34567
1020.08;  226.410;  227.278;  227.485;-0.86867
1020.62;  228.476;  228.572;  229.827;-0.09667
1021.17;  231.734;  232.641;  232.392;-0.90767
1021.71;  231.646;  231.938;  232.866;-0.29267
1022.25;  240.188;  238.795;  239.904; 1.39233
1022.80;  213.446;  213.494;  214.907;-0.04867
1023.34;  211.017;  210.921;  211.512; 0.09533
1023.88;  223.381;  225.958;  224.103;-2.57767
1024.43;  228.423;  229.192;  229.391;-0.76967
1024.97;  233.051;  232.468;  233.233; 0.58233
1025.51;  211.690;  213.056;  213.395;-1.36667
1026.06;  228.827;  228.663;  227.836; 0.16333
1026.60;  233.256;  232.935;  233.723; 0.32033
1027.14;  243.518;  244.409;  244.366;-0.89167
1027.69;  233.066;  233.391;  232.097;-0.32567
1028.23;  227.954;  227.864;  228.253; 0.08933
1028.77;  212.027;  210.959;  212.300; 1.06733
1029.31;  223.607;  223.907;  224.128;-0.30067
1029.86;  216.362;  217.588;  216.083;-1.22668
1030.40;  261.546;  261.277;  262.077; 0.26833
1030.94;  231.072;  231.815;  232.446;-0.74367
1031.48;  240.011;  241.865;  240.883;-1.85467
1032.03;  228.186;  228.825;  227.501;-0.63967
1032.57;  228.954;  229.710;  229.752;-0.75667
1033.11;  224.260;  225.599;  224.720;-1.33967
1033.65;  213.533;  215.604;  213.877;-2.07167
1034.20;  234.715;  234.869;  235.433;-0.15467
1034.74;  231.911;  231.769;  231.019; 0.14133
1035.28;  230.660;  231.913;  231.832;-1.25367
1035.82;  208.468;  208.719;  209.377;-0.25167
1036.37;  221.694;  223.026;  221.872;-1.33267
1036.91;  246.747;  247.037;  248.405;-0.29067
1037.45;  238.392;  238.466;  237.398;-0.07467
1037.99;  227.707;  228.249;  227.965;-0.54267
1038.53;  229.288;  228.503;  229.202; 0.78433
1039.08;  215.743;  217.063;  217.129;-1.32067
1039.62;  214.784;  217.190;  215.711;-2.40667
1040.16;  220.497;  221.639;  220.940;-1.14267
1040.70;  226.438;  227.786;  226.788;-1.34867
1041.24;  242.392;  243.354;  243.321;-0.96267
1041.79;  216.379;  217.552;  217.096;-1.17368
1042.33;  223.482;  224.346;  223.935;-0.86467
1042.87;  217.042;  217.206;  216.620;-0.16467
1043.41;  222.556;  222.501;  221.794; 0.05433
1043.95;  234.491;  234.598;  234.674;-0.10767
1044.49;  201.985;  203.225;  204.268;-1.24068
1045.04;  232.642;  233.232;  234.685;-0.59067
1045.58;  225.280;  225.819;  225.050;-0.53967
1046.12;  254.914;  254.707;  256.429; 0.20632
1046.66;  235.644;  236.566;  239.465;-0.92267
1047.20;  216.924;  218.107;  220.647;-1.18367
1047.74;  254.082;  252.960;  252.264; 1.12133
1048.28;  232.906;  233.803;  234.715;-0.89767
1048.82;  249.744;  249.718;  249.899; 0.02533
1049.36;  251.915;  252.411;  252.537;-0.49667
1049.91;  240.706;  240.165;  240.839; 0.54032
1050.45;  231.980;  233.614;  233.443;-1.63467
1050.99;  252.402;  253.961;  253.565;-1.55967
1051.53;  257.538;  258.279;  258.198;-0.74168
1052.07;  231.318;  231.776;  231.546;-0.45867
1052.61;  232.214;  232.081;  231.951; 0.13233
1053.15;  242.269;  243.212;  242.976;-0.94367
1053.69;  234.935;  235.231;  236.380;-0.29667
1054.23;  241.217;  240.856;  241.171; 0.36033
1054.77;  256.007;  256.236;  255.399;-0.22967
1055.31;  238.720;  239.527;  239.084;-0.80767
1055.85;  230.992;  231.508;  232.209;-0.51667
1056.39;  232.298;  231.911;  231.936; 0.38633
1056.93;  239.619;  240.977;  240.459;-1.35867
1057.47;  250.648;  251.819;  250.912;-1.17167
1058.01;  248.560;  247.962;  248.715; 0.59733
1058.55;  244.723;  245.288;  246.950;-0.56567
1059.09;  245.849;  246.810;  246.105;-0.96167
1059.63;  252.611;  254.581;  252.957;-1.97067
1060.17;  265.717;  267.383;  266.822;-1.66667
1060.71;  231.395;  231.281;  231.876; 0.11333
1061.25;  242.834;  243.365;  243.753;-0.53167
1061.79;  243.557;  244.794;  243.820;-1.23767
1062.33;  236.531;  237.078;  237.818;-0.54767
1062.87;  267.408;  267.830;  267.178;-0.42267
1063.41;  245.279;  246.600;  245.913;-1.32167
1063.95;  252.395;  253.288;  253.445;-0.89367
1064.49;  233.701;  235.054;  236.618;-1.35367
1065.03;  291.500;  291.317;  291.184; 0.18233
1065.57;  264.312;  264.609;  263.442;-0.29767
1066.11;  246.436;  247.101;  245.700;-0.66567
1066.65;  241.871;  243.172;  242.225;-1.30167
1067.19;  259.850;  260.238;  258.730;-0.38867
1067.73;  267.728;  268.166;  267.504;-0.43867
1068.27;  235.450;  236.331;  236.573;-0.88167
1068.81;  241.986;  243.212;  242.997;-1.22667
1069.35;  268.069;  267.789;  267.481; 0.27933
1069.89;  233.677;  235.643;  234.383;-1.96667
1070.43;  259.231;  259.949;  259.943;-0.71868
1070.96;  254.958;  256.385;  254.939;-1.42767
1071.50;  254.748;  254.423;  253.966; 0.32433
1072.04;  249.563;  250.627;  249.432;-1.06467
1072.58;  255.087;  256.361;  255.917;-1.27468
1073.12;  266.424;  267.410;  266.714;-0.98667
1073.66;  237.635;  238.047;  237.410;-0.41267
1074.20;  245.011;  246.415;  248.196;-1.40467
1074.74;  253.189;  253.679;  253.551;-0.49067
1075.27;  241.775;  243.478;  243.897;-1.70367
1075.81;  241.077;  244.072;  243.029;-2.99567
1076.35;  250.060;  250.500;  249.120;-0.44067
1076.89;  251.878;  252.503;  251.325;-0.62567
1077.43;  268.314;  269.825;  267.999;-1.51167
1077.97;  255.392;  256.349;  256.720;-0.95767
1078.50;  252.266;  252.629;  252.985;-0.36367
1079.04;  243.943;  244.649;  242.128;-0.70667
1079.58;  247.825;  249.365;  249.444;-1.54067
1080.12;  244.588;  245.001;  245.012;-0.41367
1080.66;  259.409;  261.188;  260.419;-1.77968
1081.20;  237.882;  239.507;  239.541;-1.62567
1081.73;  233.952;  233.600;  233.654; 0.35133
1082.27;  253.816;  254.179;  252.998;-0.36368
1082.81;  257.518;  258.626;  257.378;-1.10868
1083.35;  248.446;  249.198;  248.599;-0.75267
1083.88;  248.545;  248.672;  248.179;-0.12768
1084.42;  263.784;  264.464;  265.394;-0.68068
1084.96;  240.393;  243.203;  241.314;-2.81067
1085.50;  249.695;  250.098;  249.738;-0.40367
1086.04;  246.761;  246.902;  246.985;-0.14167
1086.57;  272.226;  271.733;  271.691; 0.49232
1087.11;  248.767;  249.627;  249.705;-0.86067
1087.65;  239.863;  240.219;  240.281;-0.35667
1088.19;  264.978;  265.083;  264.683;-0.10567
1088.72;  248.794;  249.367;  249.220;-0.57367
1089.26;  240.276;  241.925;  240.830;-1.64968
1089.80;  234.819;  235.339;  235.334;-0.52067
1090.33;  272.215;  273.404;  273.528;-1.18968
1090.87;  228.532;  228.116;  227.543; 0.41533
1091.41;  232.846;  234.206;  233.488;-1.36067
1091.95;  251.139;  251.324;  250.943;-0.18568
1092.48;  263.511;  261.837;  263.655; 1.67333
1093.02;  235.296;  236.268;  235.415;-0.97267
1093.56;  254.649;  255.327;  254.412;-0.67868
1094.09;  228.828;  230.063;  229.661;-1.23567
1094.63;  230.169;  231.309;  230.537;-1.14067
1095.17;  236.739;  237.088;  236.861;-0.34967
1095.70;  250.376;  250.927;  250.037;-0.55167
1096.24;  237.631;  238.468;  237.502;-0.83767
1096.78;  234.940;  235.585;  234.609;-0.64567
1097.31;  236.707;  237.272;  237.279;-0.56567
1097.85;  243.694;  244.074;  243.933;-0.38067
1098.39;  226.586;  227.740;  227.157;-1.15467
1098.92;  242.155;  243.127;  243.537;-0.97267
1099.46;  249.685;  249.541;  249.128; 0.14333
1099.99;  238.991;  239.752;  239.172;-0.76167
1100.53;  243.808;  244.654;  244.501;-0.84667

