
Integration time [ms]:   0.500
Averaging Nr. [scans]: 500
Smoothing Nr. [pixels]: 0
Data measured with spectrometer [name]: 7213323SP
Wave   ;Sample   ;Dark     ;Reference;Absolute Irradiance  ;Photon Counts
[nm]   ;[counts] ;[counts] ;[counts] ;[µWatt/cm²/nm]       ;[µMol/s/m²/nm]

 175.65;  202.208;  197.683;  180.414; 0.00000; 0.00000
 176.25;  220.446;  217.645;  201.051; 0.00000; 0.00000
 176.85;  219.613;  215.965;  197.041; 0.00000; 0.00000
 177.45;  218.212;  214.088;  199.894; 0.00000; 0.00000
 178.05;  209.982;  204.974;  190.085; 0.00000; 0.00000
 178.65;  208.443;  204.496;  189.195; 0.00000; 0.00000
 179.25;  201.125;  199.253;  186.282; 0.00000; 0.00000
 179.85;  213.596;  207.818;  191.669; 0.00000; 0.00000
 180.45;  202.202;  198.379;  185.031; 0.00000; 0.00000
 181.05;  246.667;  241.033;  226.588; 0.00000; 0.00000
 181.65;  204.769;  202.884;  188.083; 0.00000; 0.00000
 182.25;  225.131;  222.805;  206.883; 0.00000; 0.00000
 182.86;  223.053;  219.558;  202.121; 0.00000; 0.00000
 183.46;  220.942;  215.479;  200.708; 0.00000; 0.00000
 184.06;  204.445;  199.939;  185.033; 0.00000; 0.00000
 184.66;  186.805;  182.110;  164.643; 0.00000; 0.00000
 185.26;  229.962;  224.800;  214.998; 0.00000; 0.00000
 185.86;  210.471;  206.867;  191.880; 0.00000; 0.00000
 186.46;  230.446;  226.858;  211.614; 0.00000; 0.00000
 187.06;  214.088;  209.110;  194.406; 0.00000; 0.00000
 187.66;  233.928;  230.777;  216.525; 0.00000; 0.00000
 188.26;  241.838;  236.193;  220.940; 0.00000; 0.00000
 188.86;  220.115;  214.868;  200.640; 0.00000; 0.00000
 189.46;  217.229;  212.399;  198.052; 0.00000; 0.00000
 190.06;  207.255;  203.049;  188.358; 0.00000; 0.00000
 190.66;  212.452;  207.702;  194.493; 0.00000; 0.00000
 191.26;  231.393;  225.749;  212.779; 0.00000; 0.00000
 191.86;  225.296;  222.323;  207.622; 0.00000; 0.00000
 192.46;  224.631;  220.269;  206.770; 0.00000; 0.00000
 193.06;  226.190;  222.656;  207.841; 0.00000; 0.00000
 193.66;  215.704;  211.130;  199.942; 0.00000; 0.00000
 194.26;  233.620;  228.744;  218.472; 0.00000; 0.00000
 194.86;  201.459;  194.962;  184.097; 0.00000; 0.00000
 195.46;  208.611;  203.094;  189.176; 0.00000; 0.00000
 196.06;  220.550;  218.914;  202.533; 0.00000; 0.00000
 196.66;  197.960;  194.922;  181.286; 0.00000; 0.00000
 197.26;  194.757;  192.795;  180.080; 0.00000; 0.00000
 197.86;  227.084;  223.921;  210.197; 0.00000; 0.00000
 198.46;  196.550;  191.579;  179.072; 0.00000; 0.00000
 199.06;  223.061;  219.355;  206.441; 0.00000; 0.00000
 199.66;  212.063;  209.611;  194.867; 0.00000; 0.00000
 200.26;  202.921;  199.058;  185.670; 8.90734; 0.14908
 200.85;  218.448;  215.589;  202.080; 6.34148; 0.10646
 201.45;  209.939;  207.800;  195.434; 4.50390; 0.07583
 202.05;  211.353;  208.469;  195.645; 5.77018; 0.09744
 202.65;  208.462;  203.167;  189.896;10.09194; 0.17093
 203.25;  198.829;  193.771;  181.206; 9.15085; 0.15545
 203.85;  211.288;  207.305;  195.949; 6.90012; 0.11756
 204.45;  242.408;  238.979;  226.293; 5.69680; 0.09735
 205.05;  185.390;  182.482;  170.599; 4.59885; 0.07881
 205.65;  194.136;  190.702;  177.581; 5.08946; 0.08748
 206.25;  223.022;  217.404;  205.331; 7.98667; 0.13767
 206.85;  197.816;  194.641;  183.435; 4.28745; 0.07412
 207.45;  207.772;  204.036;  191.637; 4.80312; 0.08328
 208.05;  197.210;  192.702;  180.242; 5.56388; 0.09675
 208.65;  198.336;  196.128;  182.976; 2.63869; 0.04601
 209.25;  190.340;  186.374;  174.426; 4.56532; 0.07984
 209.84;  219.281;  217.616;  203.273; 1.88999; 0.03315
 210.44;  199.950;  197.238;  184.524; 3.00060; 0.05278
 211.04;  233.870;  231.358;  219.523; 2.69657; 0.04756
 211.64;  202.043;  197.949;  184.227; 4.19566; 0.07422
 212.24;  213.203;  208.197;  196.408; 4.93787; 0.08759
 212.84;  208.893;  204.170;  191.061; 4.51730; 0.08036
 213.44;  194.754;  190.485;  179.735; 3.89496; 0.06948
 214.04;  193.313;  190.287;  178.889; 2.64771; 0.04736
 214.64;  209.170;  206.195;  196.183; 2.48693; 0.04461
 215.24;  191.069;  186.615;  175.860; 3.60837; 0.06491
 215.83;  212.087;  207.780;  195.308; 3.34940; 0.06042
 216.43;  179.518;  175.715;  164.475; 2.86313; 0.05179
 217.03;  187.610;  182.988;  173.835; 3.38822; 0.06146
 217.63;  192.093;  187.919;  178.008; 2.94097; 0.05349
 218.23;  203.393;  197.257;  187.688; 4.24623; 0.07745
 218.83;  193.228;  189.591;  179.547; 2.44239; 0.04467
 219.43;  189.291;  185.769;  177.218; 2.30119; 0.04220
 220.03;  182.257;  178.870;  168.913; 2.14133; 0.03938
 220.62;  188.982;  183.054;  174.999; 3.64880; 0.06728
 221.22;  198.678;  194.534;  185.496; 2.46800; 0.04563
 221.82;  205.151;  200.016;  189.660; 2.99926; 0.05560
 222.42;  181.429;  177.406;  168.935; 2.28627; 0.04250
 223.02;  196.895;  191.673;  182.327; 2.92233; 0.05447
 223.62;  186.581;  180.789;  175.421; 3.19588; 0.05973
 224.22;  206.039;  202.384;  195.708; 2.00576; 0.03759
 224.81;  200.150;  196.644;  190.209; 1.91754; 0.03603
 225.41;  198.598;  193.816;  189.807; 2.58963; 0.04879
 226.01;  184.455;  180.303;  175.050; 2.22592; 0.04205
 226.61;  187.713;  183.191;  178.854; 2.37802; 0.04504
 227.21;  188.954;  182.609;  178.313; 3.23080; 0.06135
 227.81;  214.969;  209.659;  205.112; 2.63983; 0.05026
 228.40;  181.343;  176.535;  172.708; 2.30594; 0.04402
 229.00;  187.734;  183.732;  181.048; 1.86111; 0.03562
 229.60;  192.002;  186.831;  183.766; 2.31915; 0.04450
 230.20;  215.714;  212.788;  211.512; 1.26064; 0.02425
 230.80;  174.091;  172.459;  172.378; 0.68203; 0.01316
 231.39;  172.265;  167.527;  169.722; 1.92294; 0.03719
 231.99;  192.268;  189.031;  189.251; 1.26873; 0.02460
 232.59;  217.099;  213.322;  217.599; 1.44885; 0.02816
 233.19;  188.663;  184.788;  188.513; 1.44108; 0.02809
 233.79;  199.719;  194.074;  202.434; 2.05076; 0.04007
 234.38;  187.519;  181.155;  190.099; 2.28479; 0.04476
 234.98;  192.772;  188.370;  196.074; 1.53947; 0.03023
 235.58;  194.532;  190.641;  201.586; 1.34116; 0.02641
 236.18;  206.869;  203.164;  212.456; 1.25618; 0.02480
 236.78;  193.737;  190.734;  202.247; 1.00295; 0.01985
 237.37;  206.878;  202.039;  218.441; 1.59622; 0.03167
 237.97;  211.043;  207.823;  224.600; 1.04407; 0.02077
 238.57;  211.062;  208.707;  226.967; 0.75570; 0.01507
 239.17;  182.002;  177.277;  198.792; 1.50017; 0.02999
 239.76;  202.441;  198.297;  220.862; 1.30997; 0.02625
 240.36;  189.068;  187.444;  212.675; 0.51588; 0.01036
 240.96;  217.662;  215.541;  243.349; 0.67178; 0.01353
 241.56;  187.034;  180.621;  211.808; 2.04975; 0.04138
 242.15;  192.402;  188.495;  223.065; 1.25065; 0.02531
 242.75;  213.501;  209.558;  246.418; 1.27090; 0.02579
 243.35;  189.192;  184.457;  226.927; 1.55168; 0.03156
 243.95;  200.579;  197.453;  243.754; 1.01857; 0.02077
 244.54;  214.719;  210.773;  259.178; 1.29108; 0.02639
 245.14;  206.708;  204.869;  258.872; 0.59799; 0.01225
 245.74;  225.647;  221.294;  280.750; 1.39879; 0.02873
 246.34;  197.124;  193.819;  260.989; 1.04971; 0.02161
 246.93;  212.232;  208.512;  283.881; 1.15574; 0.02385
 247.53;  165.302;  161.671;  263.537; 1.10397; 0.02284
 248.13;  206.399;  204.375;  330.762; 0.59766; 0.01239
 248.73;  194.966;  191.827;  312.884; 0.91051; 0.01893
 249.32;  200.056;  195.661;  307.340; 1.24243; 0.02589
 249.92;  188.559;  185.700;  313.021; 0.79170; 0.01654
 250.52;  204.506;  202.239;  364.988; 0.61375; 0.01285
 251.11;  204.971;  202.663;  413.921; 0.61311; 0.01287
 251.71;  222.946;  215.433;  535.383; 1.97786; 0.04161
 252.31;  176.140;  173.703; 1116.602; 0.63519; 0.01339
 252.91;  202.272;  199.480;12306.623; 0.71747; 0.01517
 253.50;  170.615;  165.641;38070.578; 1.27012; 0.02691
 254.10;  210.841;  206.328;33115.004; 1.14120; 0.02424
 254.70;  178.758;  176.536; 7397.543; 0.55596; 0.01183
 255.29;  215.907;  212.377;  779.898; 0.88539; 0.01889
 255.89;  199.637;  196.303;  427.893; 0.83071; 0.01777
 256.49;  182.226;  179.333;  337.986; 0.71938; 0.01542
 257.08;  187.378;  184.927;  312.391; 0.60525; 0.01300
 257.68;  204.370;  200.782;  307.577; 0.88786; 0.01912
 258.28;  199.579;  196.473;  290.710; 0.76048; 0.01642
 258.87;  204.730;  201.035;  281.589; 0.91038; 0.01970
 259.47;  189.825;  188.466;  256.904; 0.33317; 0.00723
 260.07;  194.346;  192.447;  258.984; 0.46950; 0.01021
 260.66;  173.789;  170.832;  230.508; 0.74368; 0.01620
 261.26;  221.774;  218.189;  273.389; 0.90634; 0.01979
 261.86;  214.788;  210.572;  260.153; 1.08132; 0.02367
 262.45;  191.511;  187.782;  231.401; 0.97782; 0.02145
 263.05;  190.606;  186.571;  230.199; 1.06783; 0.02348
 263.65;  191.353;  188.336;  226.449; 0.80602; 0.01776
 264.24;  207.364;  202.699;  241.350; 1.28604; 0.02840
 264.84;  217.982;  213.486;  281.498; 1.26075; 0.02791
 265.44;  197.409;  193.797;  273.867; 1.02533; 0.02275
 266.03;  191.131;  186.432;  231.179; 1.34293; 0.02986
 266.63;  182.964;  177.934;  197.785; 1.44742; 0.03225
 267.23;  195.985;  193.778;  211.605; 0.63158; 0.01411
 267.82;  176.770;  173.370;  187.883; 0.97971; 0.02193
 268.42;  183.701;  182.152;  194.649; 0.43990; 0.00987
 269.01;  185.304;  182.224;  194.558; 0.86313; 0.01941
 269.61;  197.740;  192.776;  204.840; 1.37358; 0.03095
 270.21;  198.227;  195.282;  207.045; 0.79495; 0.01795
 270.80;  216.657;  214.141;  224.414; 0.66456; 0.01504
 271.40;  179.149;  175.081;  183.775; 1.05436; 0.02392
 271.99;  213.732;  210.252;  218.373; 0.88250; 0.02006
 272.59;  172.452;  166.909;  177.199; 1.38941; 0.03165
 273.19;  181.218;  178.471;  186.254; 0.66846; 0.01526
 273.78;  170.434;  165.923;  175.177; 1.07639; 0.02463
 274.38;  182.954;  179.972;  193.021; 0.69252; 0.01588
 274.97;  192.590;  189.235;  212.682; 0.76518; 0.01759
 275.57;  194.293;  189.079;  215.124; 1.16655; 0.02687
 276.17;  165.800;  162.938;  175.473; 0.63049; 0.01455
 276.76;  192.146;  189.276;  200.892; 0.62135; 0.01437
 277.36;  190.121;  184.533;  195.657; 1.19504; 0.02770
 277.95;  196.228;  192.939;  202.104; 0.68613; 0.01594
 278.55;  177.679;  174.476;  183.571; 0.66136; 0.01540
 279.14;  197.484;  192.438;  204.050; 1.03344; 0.02411
 279.74;  194.555;  191.624;  211.006; 0.59177; 0.01384
 280.34;  179.908;  178.278;  207.562; 0.32453; 0.00760
 280.93;  217.805;  212.138;  243.101; 1.11373; 0.02615
 281.53;  174.999;  171.384;  204.471; 0.70236; 0.01653
 282.12;  199.170;  194.235;  242.247; 0.94621; 0.02231
 282.72;  188.832;  185.071;  237.668; 0.71374; 0.01687
 283.31;  195.765;  191.149;  225.194; 0.86784; 0.02055
 283.91;  174.486;  171.666;  189.204; 0.52753; 0.01252
 284.50;  203.958;  200.763;  209.412; 0.59485; 0.01414
 285.10;  214.168;  209.686;  220.160; 0.83062; 0.01979
 285.69;  175.395;  172.610;  181.279; 0.52006; 0.01242
 286.29;  199.474;  196.250;  205.333; 0.60119; 0.01439
 286.89;  188.046;  184.295;  193.509; 0.70277; 0.01685
 287.48;  194.178;  189.418;  198.821; 0.90666; 0.02178
 288.08;  208.859;  205.631;  213.941; 0.60572; 0.01458
 288.67;  189.475;  186.563;  211.533; 0.55092; 0.01329
 289.27;  190.876;  187.128;  238.460; 0.71464; 0.01728
 289.86;  189.887;  185.186;  224.048; 0.89926; 0.02179
 290.46;  174.668;  169.865;  182.953; 0.91761; 0.02228
 291.05;  187.811;  184.759;  190.854; 0.57927; 0.01409
 291.65;  180.940;  179.724;  186.464; 0.22976; 0.00560
 292.24;  208.947;  205.865;  217.061; 0.57667; 0.01409
 292.84;  192.580;  188.679;  198.640; 0.72187; 0.01767
 293.43;  199.123;  193.865;  201.754; 0.97147; 0.02382
 294.03;  194.352;  189.644;  197.677; 0.84605; 0.02079
 294.62;  199.434;  197.008;  205.562; 0.43126; 0.01062
 295.22;  181.654;  179.734;  187.902; 0.33505; 0.00827
 295.81;  196.750;  191.224;  227.659; 0.94808; 0.02344
 296.41;  184.635;  181.169;  618.639; 0.58460; 0.01448
 297.00;  200.143;  197.118;  879.669; 0.50020; 0.01242
 297.60;  190.708;  187.001;  448.744; 0.60510; 0.01505
 298.19;  196.292;  192.858;  234.456; 0.54860; 0.01367
 298.78;  191.484;  187.964;  208.659; 0.55466; 0.01385
 299.38;  178.451;  173.117;  184.146; 0.82756; 0.02071
 299.97;  205.029;  202.172;  207.510; 0.43880; 0.01100
 300.57;  191.810;  189.128;  193.837; 0.40564; 0.01019
 301.16;  151.106;  146.962;  152.734; 0.61902; 0.01558
 301.76;  188.651;  185.294;  237.006; 0.49096; 0.01238
 302.35;  189.905;  185.605;  322.268; 0.62034; 0.01568
 302.95;  209.237;  204.537;  300.113; 0.65183; 0.01650
 303.54;  167.508;  163.525;  188.905; 0.54022; 0.01371
 304.14;  172.631;  168.864;  182.352; 0.49606; 0.01261
 304.73;  206.559;  202.417;  213.586; 0.53314; 0.01358
 305.32;  196.325;  191.368;  200.159; 0.62521; 0.01595
 305.92;  174.714;  171.758;  180.386; 0.36841; 0.00942
 306.51;  170.920;  165.586;  174.896; 0.65298; 0.01673
 307.11;  188.647;  188.126;  194.701; 0.06265; 0.00161
 307.70;  169.512;  167.288;  174.665; 0.26313; 0.00677
 308.29;  172.282;  168.260;  177.264; 0.46881; 0.01208
 308.89;  178.913;  176.771;  185.946; 0.24764; 0.00639
 309.48;  140.754;  137.783;  149.281; 0.33990; 0.00879
 310.08;  180.203;  176.752;  192.005; 0.38831; 0.01006
 310.67;  181.064;  178.269;  194.927; 0.31407; 0.00816
 311.27;  166.320;  165.572;  202.344; 0.08342; 0.00217
 311.86;  171.670;  169.266;  434.649; 0.26514; 0.00691
 312.45;  178.180;  174.607; 1292.883; 0.39103; 0.01021
 313.05;  190.116;  185.131; 2220.983; 0.54084; 0.01415
 313.64;  182.313;  178.890; 1904.856; 0.37228; 0.00976
 314.23;  170.969;  167.954;  905.625; 0.32250; 0.00847
 314.83;  197.669;  192.153;  437.262; 0.58761; 0.01546
 315.42;  163.939;  162.255;  324.042; 0.18018; 0.00475
 316.02;  170.765;  167.211;  288.107; 0.38195; 0.01009
 316.61;  166.238;  160.799;  258.543; 0.57939; 0.01533
 317.20;  177.523;  175.681;  253.209; 0.19564; 0.00519
 317.80;  171.873;  168.255;  232.493; 0.38665; 0.01027
 318.39;  177.172;  174.656;  233.203; 0.27044; 0.00720
 318.98;  206.850;  203.501;  247.328; 0.36265; 0.00967
 319.58;  182.226;  178.731;  216.003; 0.37856; 0.01011
 320.17;  181.740;  177.238;  213.990; 0.49528; 0.01325
 320.76;  183.925;  179.344;  212.286; 0.50795; 0.01362
 321.36;  184.163;  179.572;  202.238; 0.50733; 0.01363
 321.95;  182.195;  177.089;  195.718; 0.57416; 0.01545
 322.55;  199.799;  198.387;  213.062; 0.15907; 0.00429
 323.14;  165.685;  162.543;  181.970; 0.35779; 0.00966
 323.73;  168.091;  162.748;  184.904; 0.61703; 0.01669
 324.33;  189.222;  185.522;  201.519; 0.43469; 0.01178
 324.92;  183.927;  177.634;  192.560; 0.75185; 0.02042
 325.51;  180.904;  177.393;  187.946; 0.42353; 0.01152
 326.10;  175.330;  170.646;  181.914; 0.56958; 0.01552
 326.70;  187.109;  184.766;  193.516; 0.28830; 0.00787
 327.29;  181.136;  178.810;  187.224; 0.28960; 0.00792
 327.88;  178.131;  172.410;  182.818; 0.71327; 0.01955
 328.48;  186.803;  185.315;  198.026; 0.18605; 0.00511
 329.07;  193.657;  190.375;  199.266; 0.41017; 0.01128
 329.66;  184.049;  180.128;  189.404; 0.50084; 0.01380
 330.26;  188.632;  184.049;  192.723; 0.58059; 0.01603
 330.85;  194.146;  188.961;  195.784; 0.65478; 0.01811
 331.44;  189.038;  186.173;  189.246; 0.36324; 0.01006
 332.04;  189.011;  186.052;  189.683; 0.37064; 0.01029
 332.63;  178.341;  173.502;  174.903; 0.60705; 0.01688
 333.22;  187.812;  185.986;  195.090; 0.22633; 0.00630
 333.81;  192.702;  189.557;  235.574; 0.38418; 0.01072
 334.41;  195.088;  190.180;  249.291; 0.59311; 0.01658
 335.00;  204.754;  200.475;  222.102; 0.50889; 0.01425
 335.59;  189.759;  185.839;  182.714; 0.46134; 0.01294
 336.18;  199.249;  195.252;  190.339; 0.46641; 0.01311
 336.78;  178.790;  175.131;  169.251; 0.41906; 0.01180
 337.37;  182.938;  180.818;  174.332; 0.23631; 0.00666
 337.96;  237.691;  235.923;  229.099; 0.19401; 0.00548
 338.55;  209.787;  205.206;  200.760; 0.49432; 0.01399
 339.15;  198.730;  192.952;  187.809; 0.61562; 0.01745
 339.74;  186.603;  181.930;  176.051; 0.49462; 0.01404
 340.33;  183.696;  180.569;  172.264; 0.33255; 0.00946
 340.92;  195.610;  192.879;  185.726; 0.29462; 0.00839
 341.52;  189.483;  185.817;  179.138; 0.38959; 0.01112
 342.11;  184.590;  181.030;  175.982; 0.37346; 0.01068
 342.70;  173.878;  168.867;  162.731; 0.52390; 0.01501
 343.29;  189.706;  188.116;  180.213; 0.16621; 0.00477
 343.89;  179.735;  175.320;  166.492; 0.46173; 0.01327
 344.48;  190.999;  186.934;  181.187; 0.41752; 0.01202
 345.07;  166.150;  163.745;  158.639; 0.24676; 0.00712
 345.66;  196.301;  193.186;  186.801; 0.32224; 0.00931
 346.25;  181.981;  178.872;  171.893; 0.31840; 0.00921
 346.85;  195.912;  190.945;  184.557; 0.50730; 0.01471
 347.44;  172.600;  170.916;  164.301; 0.17213; 0.00500
 348.03;  183.030;  179.558;  173.428; 0.35343; 0.01028
 348.62;  202.240;  197.716;  191.544; 0.46321; 0.01350
 349.21;  176.600;  173.047;  170.085; 0.36698; 0.01071
 349.81;  187.721;  185.838;  180.710; 0.19427; 0.00568
 350.40;  176.072;  171.235;  168.015; 0.50084; 0.01467
 350.99;  171.388;  167.261;  164.370; 0.43352; 0.01272
 351.58;  182.177;  177.414;  175.213; 0.50476; 0.01483
 352.17;  158.069;  153.256;  150.727; 0.51121; 0.01505
 352.77;  179.473;  177.949;  175.698; 0.16395; 0.00483
 353.36;  189.928;  184.312;  184.777; 0.60617; 0.01790
 353.95;  191.100;  186.200;  183.532; 0.53902; 0.01595
 354.54;  167.686;  164.181;  164.695; 0.39057; 0.01157
 355.13;  187.459;  184.848;  185.178; 0.29512; 0.00876
 355.72;  190.839;  186.585;  189.178; 0.48956; 0.01456
 356.32;  180.033;  176.480;  179.394; 0.41970; 0.01250
 356.91;  198.598;  195.569;  198.581; 0.36320; 0.01083
 357.50;  181.155;  177.921;  181.332; 0.39254; 0.01173
 358.09;  177.085;  172.485;  175.948; 0.57923; 0.01734
 358.68;  181.106;  176.748;  182.453; 0.55792; 0.01673
 359.27;  189.831;  187.178;  193.575; 0.35170; 0.01056
 359.86;  199.101;  195.699;  201.175; 0.46655; 0.01403
 360.46;  168.275;  165.593;  174.085; 0.38285; 0.01153
 361.05;  184.708;  180.249;  190.340; 0.64583; 0.01949
 361.64;  178.929;  173.211;  185.086; 0.86372; 0.02611
 362.23;  185.035;  179.727;  194.651; 0.82861; 0.02509
 362.82;  176.142;  172.934;  192.502; 0.51057; 0.01548
 363.41;  182.091;  178.432;  207.875; 0.60675; 0.01843
 364.00;  188.418;  185.324;  353.780; 0.53345; 0.01623
 364.59;  195.676;  191.075; 1486.313; 0.81356; 0.02479
 365.19;  173.457;  170.520; 2522.935; 0.54148; 0.01653
 365.78;  193.603;  191.720; 1660.725; 0.35630; 0.01089
 366.37;  180.036;  177.047;  731.492; 0.58026; 0.01777
 366.96;  182.250;  178.659;  397.552; 0.71036; 0.02179
 367.55;  192.599;  189.223;  244.913; 0.66602; 0.02046
 368.14;  190.400;  186.535;  214.336; 0.76439; 0.02352
 368.73;  196.801;  194.315;  218.072; 0.49347; 0.01521
 369.32;  201.162;  199.381;  217.455; 0.35995; 0.01111
 369.91;  194.006;  190.716;  209.941; 0.66253; 0.02048
 370.50;  202.238;  199.590;  219.302; 0.53135; 0.01645
 371.09;  187.123;  182.756;  202.742; 0.87683; 0.02720
 371.69;  182.454;  176.735;  198.902; 1.14647; 0.03561
 372.28;  174.680;  172.751;  193.164; 0.38605; 0.01201
 372.87;  210.732;  206.395;  229.204; 0.86245; 0.02688
 373.46;  178.619;  175.696;  198.627; 0.57507; 0.01795
 374.05;  198.496;  195.278;  218.578; 0.63519; 0.01986
 374.64;  198.460;  195.011;  220.031; 0.67225; 0.02105
 375.23;  189.629;  186.462;  210.680; 0.61240; 0.01921
 375.82;  208.524;  204.197;  231.757; 0.82495; 0.02591
 376.41;  202.472;  199.413;  227.311; 0.58220; 0.01832
 377.00;  201.930;  198.094;  229.443; 0.72173; 0.02274
 377.59;  194.641;  189.546;  220.777; 0.92371; 0.02915
 378.18;  195.203;  192.226;  222.855; 0.53695; 0.01697
 378.77;  191.284;  188.290;  221.661; 0.53524; 0.01694
 379.36;  183.061;  178.893;  215.856; 0.73633; 0.02335
 379.95;  199.938;  200.489;  236.560;-0.09644;-0.00306
 380.54;  197.659;  194.540;  233.047; 0.53213; 0.01692
 381.13;  210.553;  205.937;  245.947; 0.77794; 0.02478
 381.72;  178.484;  174.887;  217.145; 0.59275; 0.01891
 382.31;  210.854;  208.053;  250.810; 0.45680; 0.01460
 382.90;  193.187;  190.252;  235.621; 0.47139; 0.01509
 383.49;  240.165;  236.857;  281.132; 0.52639; 0.01687
 384.08;  182.144;  177.879;  226.846; 0.66539; 0.02136
 384.67;  209.283;  204.203;  252.682; 0.78290; 0.02517
 385.26;  202.305;  198.383;  250.489; 0.58959; 0.01898
 385.85;  186.396;  182.382;  233.966; 0.59618; 0.01923
 386.44;  200.124;  196.093;  250.247; 0.59756; 0.01930
 387.03;  212.733;  207.860;  264.478; 0.70880; 0.02293
 387.62;  174.017;  170.822;  228.198; 0.45632; 0.01478
 388.21;  208.505;  205.125;  263.020; 0.47889; 0.01554
 388.80;  192.064;  185.000;  246.997; 0.98584; 0.03204
 389.39;  195.312;  190.440;  253.348; 0.67124; 0.02185
 389.98;  193.235;  189.687;  255.753; 0.48042; 0.01566
 390.57;  193.164;  188.109;  255.437; 0.68013; 0.02220
 391.16;  196.930;  195.773;  261.714; 0.15355; 0.00502
 391.75;  207.461;  205.163;  269.716; 0.30268; 0.00991
 392.34;  209.106;  203.741;  270.151; 0.69537; 0.02280
 392.93;  202.505;  199.892;  268.909; 0.33434; 0.01098
 393.52;  176.387;  174.597;  245.097; 0.22752; 0.00748
 394.11;  183.527;  179.987;  250.044; 0.44656; 0.01471
 394.70;  222.829;  217.863;  289.266; 0.62111; 0.02049
 395.29;  203.648;  199.659;  271.052; 0.49326; 0.01630
 395.88;  188.430;  186.496;  257.652; 0.24111; 0.00798
 396.47;  206.550;  203.619;  273.788; 0.35883; 0.01189
 397.05;  191.849;  188.353;  258.016; 0.42982; 0.01426
 397.64;  205.825;  200.459;  272.155; 0.65505; 0.02177
 398.23;  194.345;  191.506;  265.215; 0.34577; 0.01151
 398.82;  196.983;  193.156;  265.767; 0.46112; 0.01537
 399.41;  187.172;  184.151;  255.098; 0.36480; 0.01218
 400.00;  181.781;  176.271;  252.393; 0.66722; 0.02231
 400.59;  203.717;  200.961;  273.690; 0.33277; 0.01114
 401.18;  198.846;  195.949;  269.091; 0.35137; 0.01178
 401.77;  191.078;  187.841;  262.585; 0.39125; 0.01314
 402.36;  205.984;  202.551;  281.319; 0.41414; 0.01393
 402.95;  189.068;  183.948;  273.673; 0.62135; 0.02093
 403.53;  204.525;  199.953;  388.007; 0.55321; 0.01866
 404.12;  191.229;  188.321; 1465.115; 0.34955; 0.01181
 404.71;  190.111;  185.234; 2583.144; 0.58989; 0.01995
 405.30;  170.110;  167.577; 1466.161; 0.30906; 0.01047
 405.89;  184.479;  183.256;  421.434; 0.14793; 0.00502
 406.48;  206.929;  203.355;  292.922; 0.43364; 0.01473
 407.07;  178.696;  175.244;  287.548; 0.42184; 0.01435
 407.66;  201.014;  197.309;  386.657; 0.45750; 0.01559
 408.24;  201.980;  198.909;  354.475; 0.37699; 0.01286
 408.83;  204.764;  199.129;  276.672; 0.69515; 0.02375
 409.42;  179.132;  175.596;  233.595; 0.43746; 0.01497
 410.01;  193.902;  190.579;  246.646; 0.41197; 0.01412
 410.60;  206.816;  201.558;  254.574; 0.66562; 0.02284
 411.19;  175.296;  171.798;  222.268; 0.44094; 0.01515
 411.78;  175.341;  172.562;  221.798; 0.35557; 0.01224
 412.36;  182.012;  177.678;  225.619; 0.55154; 0.01901
 412.95;  189.146;  186.457;  232.970; 0.34592; 0.01194
 413.54;  212.023;  209.101;  253.428; 0.37568; 0.01298
 414.13;  204.297;  201.659;  245.348; 0.34240; 0.01185
 414.72;  188.373;  183.114;  226.540; 0.68301; 0.02367
 415.31;  188.212;  184.118;  228.778; 0.53673; 0.01863
 415.89;  170.299;  166.843;  208.684; 0.45477; 0.01581
 416.48;  189.227;  185.869;  225.226; 0.44650; 0.01554
 417.07;  179.352;  174.734;  214.352; 0.61699; 0.02151
 417.66;  208.142;  205.018;  243.116; 0.41964; 0.01465
 418.25;  194.233;  192.374;  226.683; 0.25332; 0.00885
 418.83;  190.395;  187.045;  222.017; 0.45593; 0.01596
 419.42;  194.583;  190.227;  226.599; 0.59563; 0.02088
 420.01;  198.526;  193.284;  228.959; 0.72136; 0.02532
 420.60;  196.495;  191.319;  225.851; 0.71922; 0.02528
 421.19;  219.172;  215.850;  246.419; 0.46578; 0.01640
 421.77;  173.655;  170.556;  202.087; 0.44013; 0.01551
 422.36;  205.785;  200.767;  230.957; 0.70991; 0.02506
 422.95;  193.593;  190.591;  218.066; 0.43078; 0.01523
 423.54;  211.849;  208.459;  236.024; 0.48789; 0.01727
 424.12;  205.835;  199.318;  225.095; 0.94211; 0.03340
 424.71;  202.653;  197.891;  224.132; 0.69470; 0.02466
 425.30;  209.078;  205.812;  231.290; 0.47801; 0.01699
 425.89;  206.996;  205.085;  228.544; 0.27995; 0.00996
 426.48;  199.216;  194.885;  220.262; 0.63772; 0.02273
 427.06;  193.001;  189.114;  212.383; 0.57682; 0.02059
 427.65;  209.307;  202.508;  225.779; 1.00346; 0.03587
 428.24;  183.916;  181.764;  202.939; 0.32020; 0.01146
 428.83;  197.203;  193.454;  213.653; 0.55384; 0.01985
 429.41;  208.764;  203.409;  224.759; 0.79832; 0.02865
 430.00;  192.853;  189.126;  211.652; 0.55604; 0.01998
 430.59;  226.825;  224.236;  246.183; 0.38238; 0.01376
 431.17;  210.732;  205.853;  229.574; 0.72730; 0.02621
 431.76;  213.102;  206.650;  230.916; 0.96165; 0.03470
 432.35;  220.230;  217.723;  241.614; 0.37335; 0.01349
 432.94;  214.866;  212.546;  244.729; 0.34456; 0.01247
 433.52;  212.917;  208.540;  258.083; 0.64519; 0.02338
 434.11;  220.432;  215.921;  298.172; 0.66340; 0.02407
 434.70;  210.716;  206.732;  485.671; 0.58669; 0.02132
 435.29;  225.298;  221.639; 2805.055; 0.53876; 0.01960
 435.87;  218.485;  214.516; 5150.592; 0.58036; 0.02114
 436.46;  221.805;  219.220; 2722.762; 0.37686; 0.01375
 437.05;  194.045;  190.688;  540.545; 0.48880; 0.01785
 437.63;  212.946;  208.630;  274.666; 0.62563; 0.02288
 438.22;  216.039;  211.656;  248.964; 0.63072; 0.02310
 438.81;  226.472;  221.284;  253.576; 0.74603; 0.02736
 439.39;  202.080;  199.218;  219.764; 0.41045; 0.01507
 439.98;  217.236;  215.315;  232.521; 0.27129; 0.00998
 440.57;  213.488;  209.464;  225.617; 0.57043; 0.02100
 441.15;  208.976;  206.160;  219.055; 0.39322; 0.01450
 441.74;  215.122;  211.445;  220.966; 0.51473; 0.01900
 442.33;  222.122;  216.907;  227.628; 0.72270; 0.02672
 442.91;  215.282;  212.265;  222.203; 0.41602; 0.01540
 443.50;  208.340;  204.370;  212.909; 0.54221; 0.02010
 444.09;  198.055;  195.231;  202.260; 0.38099; 0.01414
 444.67;  233.567;  227.558;  236.318; 0.79568; 0.02957
 445.26;  212.757;  208.066;  213.821; 0.62277; 0.02318
 445.85;  228.374;  223.914;  229.093; 0.58852; 0.02193
 446.43;  212.150;  207.618;  213.253; 0.59263; 0.02211
 447.02;  213.410;  208.401;  213.971; 0.65249; 0.02438
 447.61;  194.362;  188.137;  193.601; 0.79792; 0.02985
 448.19;  218.553;  213.571;  218.236; 0.63220; 0.02368
 448.78;  208.422;  204.012;  208.027; 0.55300; 0.02074
 449.36;  214.644;  210.460;  212.489; 0.52231; 0.01962
 449.95;  206.329;  200.699;  205.296; 0.69597; 0.02617
 450.54;  204.121;  197.744;  202.068; 0.77901; 0.02933
 451.12;  225.692;  220.680;  224.440; 0.60807; 0.02293
 451.71;  190.423;  186.504;  190.035; 0.47102; 0.01778
 452.30;  216.936;  210.246;  214.755; 0.79234; 0.02995
 452.88;  206.127;  202.638;  204.263; 0.41295; 0.01563
 453.47;  190.649;  185.162;  188.234; 0.64133; 0.02431
 454.05;  199.387;  195.895;  198.324; 0.40545; 0.01539
 454.64;  209.475;  204.624;  209.186; 0.56034; 0.02129
 455.22;  224.582;  219.909;  222.695; 0.53115; 0.02021
 455.81;  189.742;  184.368;  186.806; 0.61196; 0.02331
 456.40;  224.836;  221.243;  221.415; 0.40413; 0.01542
 456.98;  200.517;  196.965;  196.557; 0.39738; 0.01518
 457.57;  220.627;  213.931;  214.096; 0.74118; 0.02834
 458.15;  223.701;  220.259;  220.194; 0.37972; 0.01454
 458.74;  208.986;  206.308;  205.667; 0.29583; 0.01134
 459.33;  215.230;  210.258;  211.567; 0.54412; 0.02089
 459.91;  217.111;  212.480;  209.606; 0.50421; 0.01938
 460.50;  215.615;  211.818;  210.124; 0.41203; 0.01586
 461.08;  206.330;  202.580;  201.549; 0.40440; 0.01558
 461.67;  211.415;  204.009;  203.915; 0.79398; 0.03064
 462.25;  213.572;  209.073;  208.184; 0.48404; 0.01870
 462.84;  183.094;  179.758;  177.443; 0.35527; 0.01374
 463.42;  200.774;  197.853;  197.335; 0.31176; 0.01208
 464.01;  202.480;  198.781;  200.154; 0.39240; 0.01522
 464.59;  215.693;  210.736;  209.773; 0.52508; 0.02039
 465.18;  202.657;  199.435;  196.631; 0.34143; 0.01327
 465.76;  209.156;  204.591;  202.098; 0.48309; 0.01881
 466.35;  208.006;  204.578;  202.134; 0.36039; 0.01405
 466.94;  217.073;  213.739;  211.128; 0.34927; 0.01363
 467.52;  226.013;  222.254;  220.402; 0.39275; 0.01535
 468.11;  191.834;  186.952;  185.451; 0.51266; 0.02006
 468.69;  186.621;  182.640;  178.777; 0.41494; 0.01625
 469.28;  178.763;  176.102;  169.570; 0.27643; 0.01084
 469.86;  213.351;  211.052;  204.795; 0.23925; 0.00940
 470.45;  206.581;  203.680;  198.769; 0.30184; 0.01187
 471.03;  187.348;  185.317;  179.928; 0.21113; 0.00831
 471.62;  201.514;  196.057;  189.847; 0.56512; 0.02228
 472.20;  204.053;  199.606;  194.726; 0.46134; 0.01821
 472.79;  238.261;  235.504;  228.835; 0.28514; 0.01127
 473.37;  203.318;  199.719;  192.908; 0.37504; 0.01484
 473.95;  200.505;  197.398;  192.703; 0.32381; 0.01283
 474.54;  161.247;  157.870;  152.162; 0.35261; 0.01398
 475.12;  227.585;  224.079;  218.210; 0.36596; 0.01453
 475.71;  208.920;  206.084;  199.441; 0.29820; 0.01186
 476.29;  212.977;  208.995;  203.200; 0.42036; 0.01673
 476.88;  188.157;  183.802;  178.540; 0.45864; 0.01828
 477.46;  189.927;  186.775;  179.356; 0.33271; 0.01328
 478.05;  196.391;  193.817;  186.478; 0.27370; 0.01094
 478.63;  200.424;  196.805;  191.034; 0.38313; 0.01533
 479.22;  180.481;  176.957;  170.278; 0.37443; 0.01500
 479.80;  206.558;  202.744;  195.363; 0.40727; 0.01633
 480.38;  201.666;  196.983;  191.085; 0.50216; 0.02016
 480.97;  185.657;  181.273;  174.897; 0.46976; 0.01888
 481.55;  197.101;  193.649;  186.205; 0.37211; 0.01498
 482.14;  219.661;  216.319;  207.401; 0.36010; 0.01451
 482.72;  191.659;  188.926;  182.124; 0.29588; 0.01194
 483.31;  188.535;  186.759;  177.897; 0.19305; 0.00780
 483.89;  195.156;  190.351;  182.403; 0.52562; 0.02126
 484.47;  193.287;  189.825;  182.354; 0.37869; 0.01533
 485.06;  185.678;  180.502;  172.672; 0.57091; 0.02314
 485.64;  209.949;  203.733;  195.664; 0.68944; 0.02798
 486.23;  214.711;  209.627;  200.398; 0.56772; 0.02307
 486.81;  206.580;  201.879;  194.241; 0.52485; 0.02135
 487.39;  177.786;  173.409;  164.354; 0.49096; 0.02000
 487.98;  189.536;  185.165;  176.507; 0.49433; 0.02016
 488.56;  217.795;  213.971;  205.349; 0.43330; 0.01769
 489.15;  186.360;  184.269;  176.203; 0.23958; 0.00979
 489.73;  190.350;  187.643;  179.606; 0.31127; 0.01274
 490.31;  190.464;  187.193;  179.772; 0.37670; 0.01544
 490.90;  192.265;  188.281;  182.159; 0.46428; 0.01905
 491.48;  194.783;  190.553;  192.437; 0.49709; 0.02042
 492.06;  208.362;  204.193;  201.679; 0.48850; 0.02009
 492.65;  178.546;  174.092;  168.469; 0.52777; 0.02173
 493.23;  166.380;  163.432;  155.351; 0.35265; 0.01454
 493.82;  201.670;  197.379;  188.929; 0.51241; 0.02115
 494.40;  167.082;  162.969;  154.592; 0.49696; 0.02053
 494.98;  185.425;  182.439;  173.304; 0.36271; 0.01501
 495.57;  167.209;  163.400;  154.804; 0.46625; 0.01931
 496.15;  163.530;  160.396;  152.224; 0.38702; 0.01605
 496.73;  178.554;  175.179;  165.567; 0.41910; 0.01740
 497.32;  201.168;  196.964;  185.987; 0.52134; 0.02167
 497.90;  198.840;  194.525;  184.261; 0.53866; 0.02242
 498.48;  173.026;  170.031;  161.229; 0.37857; 0.01577
 499.07;  178.865;  176.284;  167.574; 0.32646; 0.01362
 499.65;  198.398;  196.256;  185.883; 0.27286; 0.01139
 500.23;  165.124;  159.822;  150.126; 0.67859; 0.02837
 500.82;  175.289;  170.008;  163.825; 0.68147; 0.02852
 501.40;  179.597;  174.390;  166.053; 0.67366; 0.02823
 501.98;  192.594;  189.139;  178.435; 0.44702; 0.01875
 502.56;  206.155;  201.696;  192.690; 0.58266; 0.02447
 503.15;  207.214;  200.872;  191.639; 0.82938; 0.03488
 503.73;  190.535;  185.442;  175.410; 0.66987; 0.02820
 504.31;  192.592;  188.624;  178.659; 0.52365; 0.02207
 504.90;  198.836;  195.918;  186.738; 0.38755; 0.01635
 505.48;  211.776;  208.890;  199.199; 0.38389; 0.01622
 506.06;  197.292;  192.303;  184.710; 0.66824; 0.02826
 506.64;  183.854;  180.069;  170.026; 0.50779; 0.02150
 507.23;  192.243;  186.302;  176.401; 0.79958; 0.03390
 507.81;  200.266;  198.269;  188.977; 0.26878; 0.01141
 508.39;  190.250;  186.393;  176.174; 0.52022; 0.02210
 508.97;  198.730;  194.818;  185.047; 0.52819; 0.02247
 509.56;  207.960;  203.091;  194.375; 0.66063; 0.02813
 510.14;  174.612;  170.170;  161.241; 0.60021; 0.02559
 510.72;  191.467;  188.486;  177.478; 0.40497; 0.01729
 511.30;  200.838;  198.372;  186.041; 0.33428; 0.01429
 511.89;  201.467;  196.826;  185.565; 0.63090; 0.02699
 512.47;  195.061;  190.606;  181.031; 0.60274; 0.02582
 513.05;  191.176;  186.728;  177.585; 0.60756; 0.02605
 513.63;  190.715;  187.539;  177.868; 0.43372; 0.01862
 514.22;  203.408;  199.475;  189.266; 0.53259; 0.02289
 514.80;  201.424;  198.298;  188.139; 0.42330; 0.01821
 515.38;  192.551;  188.490;  179.039; 0.55008; 0.02369
 515.96;  215.343;  209.215;  200.259; 0.83137; 0.03585
 516.55;  185.550;  181.693;  172.391; 0.52470; 0.02265
 517.13;  197.779;  192.605;  186.021; 0.70883; 0.03064
 517.71;  183.278;  177.592;  169.247; 0.78200; 0.03384
 518.29;  181.019;  179.041;  170.914; 0.27216; 0.01179
 518.87;  194.330;  190.233;  182.674; 0.56670; 0.02458
 519.46;  186.362;  183.000;  174.753; 0.46635; 0.02025
 520.04;  190.522;  186.178;  177.625; 0.59738; 0.02596
 520.62;  181.239;  176.160;  166.467; 0.70376; 0.03062
 521.20;  178.035;  172.954;  162.686; 0.70604; 0.03076
 521.78;  193.079;  187.714;  180.553; 0.74136; 0.03233
 522.36;  187.727;  185.124;  175.982; 0.36015; 0.01572
 522.95;  191.290;  188.405;  177.197; 0.39950; 0.01746
 523.53;  176.938;  174.143;  164.834; 0.38727; 0.01695
 524.11;  189.674;  186.796;  176.760; 0.39529; 0.01732
 524.69;  184.950;  180.637;  170.408; 0.59457; 0.02607
 525.27;  186.756;  184.194;  173.546; 0.35309; 0.01550
 525.85;  197.237;  192.337;  182.985; 0.67283; 0.02957
 526.44;  199.286;  193.715;  182.487; 0.76168; 0.03351
 527.02;  206.368;  201.220;  192.145; 0.70142; 0.03090
 527.60;  198.733;  193.560;  184.817; 0.70484; 0.03108
 528.18;  181.335;  178.594;  168.352; 0.37211; 0.01643
 528.76;  211.221;  206.922;  197.754; 0.58246; 0.02574
 529.34;  195.126;  192.490;  182.904; 0.35607; 0.01575
 529.92;  210.199;  207.366;  199.070; 0.37893; 0.01678
 530.51;  200.933;  197.645;  189.082; 0.43957; 0.01949
 531.09;  193.825;  188.534;  180.559; 0.70566; 0.03132
 531.67;  188.312;  183.724;  176.286; 0.60985; 0.02710
 532.25;  208.426;  204.155;  198.863; 0.56519; 0.02514
 532.83;  212.129;  206.906;  200.968; 0.69274; 0.03085
 533.41;  185.569;  181.774;  175.342; 0.49645; 0.02213
 533.99;  211.072;  206.352;  200.241; 0.61418; 0.02741
 534.57;  229.600;  225.213;  219.337; 0.56961; 0.02545
 535.15;  191.708;  187.017;  181.714; 0.60614; 0.02711
 535.74;  185.341;  181.216;  177.698; 0.53005; 0.02373
 536.32;  194.398;  187.674;  183.533; 0.86292; 0.03868
 536.90;  183.685;  181.163;  173.158; 0.32405; 0.01454
 537.48;  198.667;  194.312;  186.764; 0.55281; 0.02483
 538.06;  215.460;  210.971;  204.852; 0.56836; 0.02556
 538.64;  202.675;  198.888;  193.302; 0.47783; 0.02151
 539.22;  193.137;  189.865;  184.206; 0.41145; 0.01854
 539.80;  200.152;  194.768;  190.142; 0.67676; 0.03053
 540.38;  213.773;  210.447;  205.750; 0.41586; 0.01878
 540.96;  183.296;  179.059;  176.155; 0.52585; 0.02377
 541.54;  190.434;  186.720;  183.672; 0.46058; 0.02085
 542.12;  234.667;  228.588;  228.946; 0.75104; 0.03403
 542.70;  178.242;  175.374;  178.319; 0.35457; 0.01608
 543.28;  198.035;  193.714;  202.682; 0.53128; 0.02412
 543.86;  193.141;  188.745;  204.103; 0.54101; 0.02459
 544.44;  241.914;  237.271;  278.849; 0.56120; 0.02554
 545.02;  210.392;  206.551;  518.343; 0.46612; 0.02123
 545.61;  198.946;  196.182; 3429.565; 0.33371; 0.01522
 546.19;  203.884;  200.064; 4874.079; 0.46059; 0.02103
 546.77;  197.094;  194.728; 1764.281; 0.28482; 0.01302
 547.35;  231.169;  225.797;  398.729; 0.63857; 0.02921
 547.93;  206.056;  201.215;  238.837; 0.57580; 0.02637
 548.51;  207.175;  204.398;  217.970; 0.32882; 0.01507
 549.09;  216.080;  211.314;  218.477; 0.56262; 0.02582
 549.67;  216.364;  213.334;  211.654; 0.35636; 0.01637
 550.25;  196.578;  194.331;  191.700; 0.26384; 0.01213
 550.83;  219.223;  216.293;  213.583; 0.34271; 0.01578
 551.41;  207.322;  203.432;  198.861; 0.45390; 0.02092
 551.99;  207.605;  201.780;  196.932; 0.67741; 0.03125
 552.57;  207.995;  203.448;  197.915; 0.52629; 0.02431
 553.15;  226.448;  222.959;  214.893; 0.40268; 0.01862
 553.73;  186.672;  182.458;  174.930; 0.48365; 0.02238
 554.30;  215.924;  213.818;  206.191; 0.24112; 0.01117
 554.88;  204.349;  200.862;  191.836; 0.39904; 0.01851
 555.46;  213.267;  209.193;  201.328; 0.46226; 0.02146
 556.04;  204.274;  202.552;  193.265; 0.19502; 0.00906
 556.62;  227.924;  223.457;  215.762; 0.50578; 0.02353
 557.20;  190.473;  186.816;  178.369; 0.41260; 0.01921
 557.78;  214.092;  210.817;  201.259; 0.36676; 0.01710
 558.36;  229.082;  224.307;  213.174; 0.53391; 0.02492
 558.94;  224.643;  220.658;  212.481; 0.44460; 0.02077
 559.52;  199.372;  195.005;  185.274; 0.48565; 0.02271
 560.10;  214.851;  209.522;  200.758; 0.59235; 0.02773
 560.68;  213.118;  208.493;  200.698; 0.51013; 0.02391
 561.26;  233.573;  229.595;  221.469; 0.43869; 0.02058
 561.84;  192.363;  189.089;  179.169; 0.36276; 0.01703
 562.42;  208.187;  203.696;  194.921; 0.49516; 0.02328
 563.00;  213.694;  210.018;  200.683; 0.40366; 0.01899
 563.58;  212.683;  205.746;  197.730; 0.76129; 0.03586
 564.15;  209.979;  204.472;  196.425; 0.60386; 0.02847
 564.73;  214.899;  212.124;  203.546; 0.30247; 0.01428
 565.31;  225.702;  222.376;  214.694; 0.36320; 0.01716
 565.89;  191.161;  187.768;  180.168; 0.37078; 0.01754
 566.47;  201.416;  197.570;  190.334; 0.41923; 0.01985
 567.05;  222.714;  219.124;  209.801; 0.39131; 0.01855
 567.63;  207.809;  202.638;  193.745; 0.56156; 0.02664
 568.21;  200.050;  196.746;  188.234; 0.35741; 0.01697
 568.79;  224.701;  220.752;  211.859; 0.42635; 0.02027
 569.36;  250.078;  243.026;  236.033; 0.76096; 0.03621
 569.94;  202.834;  198.682;  190.086; 0.45117; 0.02149
 570.52;  221.690;  217.044;  208.876; 0.50040; 0.02386
 571.10;  171.383;  165.848;  157.098; 0.59631; 0.02846
 571.68;  211.216;  206.914;  199.348; 0.46318; 0.02213
 572.26;  219.183;  213.560;  206.805; 0.60448; 0.02891
 572.84;  225.276;  221.351;  213.302; 0.42332; 0.02027
 573.41;  201.496;  199.993;  191.510; 0.16191; 0.00776
 573.99;  245.565;  240.671;  234.484; 0.52835; 0.02535
 574.57;  207.601;  202.475;  198.005; 0.55172; 0.02649
 575.15;  240.519;  235.449;  233.762; 0.54716; 0.02630
 575.73;  224.113;  218.525;  238.659; 0.60544; 0.02913
 576.31;  219.818;  216.150;  581.907; 0.39857; 0.01920
 576.88;  194.316;  190.813;  993.686; 0.37889; 0.01827
 577.46;  205.907;  201.308;  632.249; 0.49701; 0.02399
 578.04;  200.520;  194.989;  314.338; 0.59985; 0.02898
 578.62;  198.269;  192.833;  838.586; 0.59399; 0.02873
 579.20;  203.808;  199.291; 1006.280; 0.49434; 0.02393
 579.78;  209.314;  206.775;  438.584; 0.27685; 0.01342
 580.35;  209.749;  205.294;  224.094; 0.48634; 0.02359
 580.93;  197.738;  196.232;  193.932; 0.16495; 0.00801
 581.51;  212.735;  209.235;  203.406; 0.38357; 0.01864
 582.09;  193.132;  188.797;  181.770; 0.47636; 0.02317
 582.67;  195.427;  190.552;  181.880; 0.53626; 0.02611
 583.24;  198.469;  192.994;  185.282; 0.60387; 0.02944
 583.82;  201.381;  196.967;  188.714; 0.48611; 0.02372
 584.40;  198.900;  194.007;  186.158; 0.54252; 0.02650
 584.98;  195.483;  191.402;  183.929; 0.45140; 0.02207
 585.55;  210.280;  203.861;  197.391; 0.70904; 0.03470
 586.13;  184.505;  179.295;  170.347; 0.57460; 0.02815
 586.71;  205.188;  200.789;  193.534; 0.48617; 0.02384
 587.29;  200.319;  196.630;  185.393; 0.40696; 0.01998
 587.86;  203.643;  198.047;  189.128; 0.61976; 0.03045
 588.44;  163.582;  159.706;  151.278; 0.42938; 0.02112
 589.02;  216.270;  213.083;  202.846; 0.35349; 0.01740
 589.60;  193.268;  190.031;  180.686; 0.36010; 0.01774
 590.17;  207.846;  202.388;  192.297; 0.60891; 0.03003
 590.75;  182.467;  178.790;  169.301; 0.41266; 0.02037
 591.33;  184.369;  177.961;  171.119; 0.72217; 0.03569
 591.91;  193.400;  189.344;  180.134; 0.45839; 0.02268
 592.48;  188.723;  184.928;  174.727; 0.43241; 0.02141
 593.06;  205.741;  200.349;  191.277; 0.61565; 0.03052
 593.64;  200.640;  195.441;  186.123; 0.59755; 0.02965
 594.21;  184.608;  182.756;  171.966; 0.21474; 0.01066
 594.79;  197.098;  195.487;  184.253; 0.18734; 0.00931
 595.37;  199.877;  195.063;  186.634; 0.56179; 0.02795
 595.95;  182.744;  178.963;  169.210; 0.44391; 0.02211
 596.52;  188.361;  183.533;  174.385; 0.56601; 0.02822
 597.10;  197.869;  191.064;  181.543; 0.80290; 0.04007
 597.68;  179.004;  175.335;  167.048; 0.43262; 0.02161
 598.25;  204.323;  199.545;  191.102; 0.56853; 0.02843
 598.83;  183.907;  177.327;  168.230; 0.79009; 0.03954
 599.41;  196.561;  192.369;  181.930; 0.50466; 0.02528
 599.98;  221.196;  217.776;  207.470; 0.41272; 0.02070
 600.56;  212.543;  206.868;  196.510; 0.69013; 0.03464
 601.14;  196.615;  193.331;  182.296; 0.39985; 0.02009
 601.71;  196.702;  193.595;  185.581; 0.37998; 0.01911
 602.29;  184.555;  181.427;  171.919; 0.38373; 0.01932
 602.87;  210.331;  206.369;  196.942; 0.48941; 0.02466
 603.44;  203.293;  199.681;  189.970; 0.44763; 0.02258
 604.02;  195.620;  192.578;  183.106; 0.37852; 0.01911
 604.60;  216.701;  213.089;  201.173; 0.45161; 0.02282
 605.17;  223.861;  220.208;  208.291; 0.46061; 0.02330
 605.75;  213.829;  208.642;  198.867; 0.65374; 0.03310
 606.33;  203.953;  200.099;  190.642; 0.48913; 0.02479
 606.90;  224.594;  219.698;  211.394; 0.62308; 0.03161
 607.48;  213.544;  209.886;  199.325; 0.46985; 0.02386
 608.05;  194.695;  189.070;  178.524; 0.72438; 0.03681
 608.63;  201.087;  197.172;  186.371; 0.50723; 0.02580
 609.21;  190.693;  185.709;  176.448; 0.65017; 0.03310
 609.78;  218.897;  215.269;  205.182; 0.47203; 0.02406
 610.36;  205.607;  202.268;  191.741; 0.43728; 0.02231
 610.93;  211.977;  207.761;  196.171; 0.55634; 0.02841
 611.51;  195.174;  189.534;  179.469; 0.74352; 0.03800
 612.09;  221.623;  216.353;  207.395; 0.70016; 0.03582
 612.66;  205.729;  200.952;  190.107; 0.63742; 0.03264
 613.24;  216.805;  212.609;  203.003; 0.56071; 0.02874
 613.81;  223.103;  219.274;  206.200; 0.51514; 0.02643
 614.39;  218.852;  211.861;  203.399; 0.94412; 0.04848
 614.96;  233.312;  230.356;  217.412; 0.39966; 0.02054
 615.54;  216.808;  214.199;  201.843; 0.35577; 0.01830
 616.12;  226.552;  222.551;  209.965; 0.54506; 0.02807
 616.69;  184.212;  178.706;  169.197; 0.75846; 0.03909
 617.27;  211.973;  208.499;  196.719; 0.47922; 0.02472
 617.84;  193.344;  189.602;  178.833; 0.51770; 0.02673
 618.42;  227.143;  223.902;  211.207; 0.45083; 0.02330
 618.99;  211.437;  207.310;  195.870; 0.57479; 0.02974
 619.57;  229.322;  224.722;  214.600; 0.64365; 0.03333
 620.14;  221.226;  216.854;  204.552; 0.61416; 0.03183
 620.72;  199.897;  195.478;  183.325; 0.62243; 0.03229
 621.30;  223.054;  218.609;  206.934; 0.62854; 0.03264
 621.87;  229.847;  226.389;  212.652; 0.49160; 0.02555
 622.45;  219.562;  216.036;  204.167; 0.50381; 0.02621
 623.02;  193.937;  189.716;  178.127; 0.60433; 0.03147
 623.60;  202.503;  201.131;  189.356; 0.19757; 0.01030
 624.17;  211.214;  205.801;  194.886; 0.77718; 0.04054
 624.75;  220.618;  216.995;  205.327; 0.52454; 0.02739
 625.32;  208.894;  203.625;  192.308; 0.76534; 0.04000
 625.90;  212.421;  209.615;  198.133; 0.41000; 0.02145
 626.47;  225.905;  222.221;  210.485; 0.53884; 0.02821
 627.05;  196.567;  192.468;  179.759; 0.60078; 0.03149
 627.62;  214.200;  211.457;  196.459; 0.40436; 0.02121
 628.20;  233.534;  230.745;  218.249; 0.41110; 0.02158
 628.77;  225.928;  223.318;  211.877; 0.38676; 0.02032
 629.34;  247.785;  242.716;  231.819; 0.75162; 0.03954
 629.92;  203.869;  200.139;  187.490; 0.55601; 0.02927
 630.49;  228.360;  223.482;  213.266; 0.72988; 0.03846
 631.07;  205.809;  200.776;  188.294; 0.75466; 0.03980
 631.64;  204.187;  198.962;  187.824; 0.78514; 0.04145
 632.22;  248.245;  242.665;  230.912; 0.84170; 0.04448
 632.79;  222.838;  217.081;  206.039; 0.86925; 0.04597
 633.37;  227.028;  223.917;  212.526; 0.47219; 0.02500
 633.94;  221.960;  217.522;  206.488; 0.67647; 0.03584
 634.52;  217.855;  212.818;  199.758; 0.76855; 0.04076
 635.09;  233.476;  226.343;  215.253; 1.08992; 0.05785
 635.66;  199.941;  193.595;  181.904; 0.96983; 0.05153
 636.24;  211.602;  206.818;  196.282; 0.73536; 0.03910
 636.81;  252.932;  247.926;  236.037; 0.76910; 0.04093
 637.39;  234.347;  230.244;  219.425; 0.63064; 0.03360
 637.96;  230.493;  226.615;  214.710; 0.59747; 0.03186
 638.54;  233.015;  227.075;  214.657; 0.91903; 0.04905
 639.11;  207.929;  205.082;  192.193; 0.44195; 0.02361
 639.68;  233.572;  230.787;  218.132; 0.43369; 0.02319
 640.26;  217.981;  213.527;  200.830; 0.69349; 0.03711
 640.83;  218.359;  215.921;  202.731; 0.38119; 0.02042
 641.41;  213.611;  207.735;  195.288; 0.91577; 0.04909
 641.98;  216.363;  213.315;  202.609; 0.47805; 0.02565
 642.55;  198.607;  192.323;  181.128; 0.98495; 0.05290
 643.13;  215.827;  210.921;  198.066; 0.76980; 0.04138
 643.70;  233.307;  229.055;  217.215; 0.67021; 0.03606
 644.27;  218.756;  214.693;  203.618; 0.63716; 0.03431
 644.85;  208.736;  203.901;  194.159; 0.76481; 0.04122
 645.42;  215.032;  213.401;  199.911; 0.25744; 0.01389
 645.99;  206.922;  202.407;  190.061; 0.71511; 0.03861
 646.57;  213.040;  208.313;  196.463; 0.74773; 0.04041
 647.14;  218.334;  214.555;  201.200; 0.59798; 0.03234
 647.72;  196.868;  192.275;  180.416; 0.73013; 0.03953
 648.29;  207.148;  202.247;  192.608; 0.77546; 0.04202
 648.86;  234.682;  228.633;  216.710; 0.96199; 0.05217
 649.44;  199.558;  195.255;  183.041; 0.68432; 0.03714
 650.01;  208.984;  205.453;  193.457; 0.56265; 0.03057
 650.58;  219.078;  215.097;  202.430; 0.63512; 0.03453
 651.16;  216.690;  212.503;  200.440; 0.66883; 0.03640
 651.73;  204.558;  200.037;  187.736; 0.71874; 0.03915
 652.30;  222.714;  219.053;  207.431; 0.58396; 0.03184
 652.87;  205.582;  201.613;  192.315; 0.63442; 0.03462
 653.45;  228.860;  224.455;  212.966; 0.70422; 0.03846
 654.02;  202.468;  199.285;  187.624; 0.50949; 0.02785
 654.59;  214.294;  208.893;  196.423; 0.86547; 0.04735
 655.17;  217.248;  213.279;  201.261; 0.63026; 0.03451
 655.74;  202.452;  196.931;  184.871; 0.87900; 0.04817
 656.31;  215.304;  209.068;  197.131; 0.99176; 0.05440
 656.89;  215.600;  211.098;  199.572; 0.71352; 0.03917
 657.46;  221.672;  217.140;  205.138; 0.71937; 0.03953
 658.03;  227.009;  224.494;  212.823; 0.39886; 0.02194
 658.60;  211.103;  206.882;  194.048; 0.66711; 0.03672
 659.18;  225.033;  219.652;  210.082; 0.84575; 0.04659
 659.75;  210.467;  204.822;  194.466; 0.88481; 0.04879
 660.32;  230.851;  225.492;  212.587; 0.83848; 0.04627
 660.89;  209.821;  205.206;  193.109; 0.72049; 0.03980
 661.47;  227.425;  223.910;  212.436; 0.54703; 0.03024
 662.04;  228.671;  224.456;  212.492; 0.65374; 0.03617
 662.61;  211.321;  207.286;  195.400; 0.62308; 0.03451
 663.18;  218.925;  213.752;  202.315; 0.79138; 0.04386
 663.76;  198.997;  194.940;  181.848; 0.62221; 0.03452
 664.33;  223.499;  219.728;  208.590; 0.57451; 0.03190
 664.90;  220.133;  215.904;  203.257; 0.64264; 0.03571
 665.47;  214.801;  209.138;  197.715; 0.86055; 0.04786
 666.05;  204.383;  201.502;  190.679; 0.43522; 0.02423
 666.62;  242.763;  236.088;  225.637; 1.00975; 0.05626
 667.19;  206.373;  202.196;  192.394; 0.63393; 0.03535
 667.76;  200.089;  195.108;  189.455; 0.75588; 0.04219
 668.33;  203.225;  200.074;  191.776; 0.47832; 0.02672
 668.91;  197.267;  193.468;  180.984; 0.58042; 0.03245
 669.48;  209.757;  207.060;  195.022; 0.41177; 0.02304
 670.05;  197.133;  194.674;  181.436; 0.37784; 0.02116
 670.62;  217.333;  211.946;  200.111; 0.82655; 0.04633
 671.19;  214.831;  211.004;  199.468; 0.58791; 0.03298
 671.76;  221.566;  217.456;  204.944; 0.63391; 0.03559
 672.34;  203.496;  199.432;  187.849; 0.62881; 0.03533
 672.91;  212.230;  209.166;  196.127; 0.47480; 0.02670
 673.48;  204.682;  200.658;  188.041; 0.62585; 0.03523
 674.05;  226.776;  221.264;  210.493; 0.85951; 0.04842
 674.62;  220.766;  218.152;  207.026; 0.40525; 0.02285
 675.19;  214.310;  211.604;  199.583; 0.42018; 0.02371
 675.77;  220.546;  215.482;  203.236; 0.78393; 0.04428
 676.34;  193.716;  186.936;  176.251; 1.05489; 0.05963
 676.91;  207.132;  203.846;  192.447; 0.51125; 0.02892
 677.48;  211.666;  208.856;  196.000; 0.43806; 0.02480
 678.05;  210.654;  206.986;  194.424; 0.56940; 0.03227
 678.62;  220.302;  217.058;  206.241; 0.50244; 0.02850
 679.19;  214.424;  209.516;  199.488; 0.75811; 0.04303
 679.77;  208.626;  202.434;  191.219; 0.95879; 0.05447
 680.34;  175.980;  171.842;  160.329; 0.63577; 0.03615
 680.91;  204.856;  200.050;  189.018; 0.73971; 0.04210
 681.48;  208.532;  204.504;  192.089; 0.61930; 0.03527
 682.05;  214.238;  210.700;  198.306; 0.54210; 0.03090
 682.62;  185.226;  179.440;  167.647; 0.88833; 0.05068
 683.19;  202.208;  199.038;  187.455; 0.48675; 0.02779
 683.76;  210.884;  206.543;  195.830; 0.66549; 0.03803
 684.33;  216.038;  211.093;  199.173; 0.76192; 0.04358
 684.90;  192.796;  190.213;  176.952; 0.39833; 0.02280
 685.48;  193.364;  189.561;  180.005; 0.58925; 0.03376
 686.05;  191.703;  188.365;  177.615; 0.51399; 0.02947
 686.62;  210.579;  205.975;  197.183; 0.71153; 0.04083
 687.19;  193.035;  187.865;  176.679; 0.80459; 0.04621
 687.76;  204.383;  198.229;  187.707; 0.95032; 0.05463
 688.33;  204.469;  199.797;  190.216; 0.71985; 0.04141
 688.90;  202.577;  199.131;  187.084; 0.53481; 0.03079
 689.47;  164.861;  162.161;  148.484; 0.41865; 0.02412
 690.04;  190.511;  186.713;  177.908; 0.58817; 0.03392
 690.61;  197.165;  194.057;  191.835; 0.48097; 0.02776
 691.18;  182.429;  178.479;  172.036; 0.61045; 0.03526
 691.75;  223.885;  219.139;  209.598; 0.73221; 0.04233
 692.32;  205.499;  200.959;  191.508; 0.70241; 0.04064
 692.89;  224.601;  222.367;  209.013; 0.34314; 0.01987
 693.46;  209.363;  204.489;  194.434; 0.74784; 0.04334
 694.03;  200.281;  195.085;  185.955; 0.80002; 0.04641
 694.60;  210.821;  206.497;  198.362; 0.66539; 0.03863
 695.17;  205.001;  200.757;  198.056; 0.65157; 0.03786
 695.74;  191.823;  190.057;  295.952; 0.27084; 0.01575
 696.31;  199.541;  195.867;  526.357; 0.56141; 0.03267
 696.88;  210.731;  207.421;  436.680; 0.50515; 0.02942
 697.45;  194.855;  189.935;  217.769; 0.75122; 0.04379
 698.02;  180.271;  176.325;  171.529; 0.60257; 0.03515
 698.59;  182.351;  178.251;  171.783; 0.62624; 0.03656
 699.16;  186.585;  184.641;  173.378; 0.29706; 0.01736
 699.73;  201.686;  197.615;  185.243; 0.61854; 0.03617
 700.30;  189.328;  186.159;  173.389; 0.48180; 0.02820
 700.87;  207.314;  202.185;  192.910; 0.77454; 0.04537
 701.44;  206.386;  203.345;  190.847; 0.45917; 0.02692
 702.01;  199.878;  197.171;  185.005; 0.41050; 0.02409
 702.58;  222.670;  218.783;  206.841; 0.58748; 0.03450
 703.15;  186.924;  181.709;  172.191; 0.78466; 0.04611
 703.72;  207.560;  206.217;  192.738; 0.20244; 0.01191
 704.29;  183.898;  179.693;  167.346; 0.63255; 0.03723
 704.86;  211.926;  208.513;  199.260; 0.51323; 0.03023
 705.43;  207.364;  201.071;  191.919; 0.94213; 0.05555
 706.00;  201.614;  197.321;  222.417; 0.64143; 0.03785
 706.57;  194.062;  190.973;  262.230; 0.46223; 0.02730
 707.14;  187.792;  184.529;  221.456; 0.48847; 0.02887
 707.70;  226.642;  223.207;  218.764; 0.51397; 0.03040
 708.27;  193.450;  191.251;  179.997; 0.32868; 0.01946
 708.84;  190.264;  189.233;  178.009; 0.15423; 0.00914
 709.41;  173.598;  170.279;  159.808; 0.49606; 0.02941
 709.98;  219.972;  215.901;  204.521; 0.60687; 0.03601
 710.55;  193.562;  190.797;  181.279; 0.41276; 0.02451
 711.12;  214.892;  211.408;  198.254; 0.51833; 0.03081
 711.69;  210.754;  207.192;  194.719; 0.52790; 0.03140
 712.26;  210.754;  207.056;  194.505; 0.54936; 0.03270
 712.83;  225.820;  222.738;  210.775; 0.45471; 0.02709
 713.39;  211.885;  207.774;  195.453; 0.60976; 0.03636
 713.96;  223.101;  217.908;  212.738; 0.76829; 0.04585
 714.53;  207.335;  203.750;  206.613; 0.53100; 0.03171
 715.10;  206.833;  204.568;  202.143; 0.33522; 0.02004
 715.67;  189.227;  183.610;  175.208; 0.83170; 0.04975
 716.24;  209.467;  205.180;  193.437; 0.63439; 0.03798
 716.81;  228.673;  223.400;  211.046; 0.77756; 0.04658
 717.37;  210.099;  207.438;  195.090; 0.39458; 0.02366
 717.94;  217.593;  214.176;  202.676; 0.50499; 0.03030
 718.51;  220.277;  214.966;  203.290; 0.78369; 0.04706
 719.08;  203.473;  197.582;  185.101; 0.87043; 0.05231
 719.65;  228.513;  223.176;  211.135; 0.78858; 0.04743
 720.22;  223.205;  218.916;  206.097; 0.63488; 0.03822
 720.78;  215.717;  211.180;  198.790; 0.66902; 0.04030
 721.35;  202.605;  198.594;  186.655; 0.59112; 0.03564
 721.92;  229.945;  224.814;  214.834; 0.75633; 0.04563
 722.49;  216.159;  212.868;  202.874; 0.48550; 0.02932
 723.06;  213.191;  209.478;  198.919; 0.54891; 0.03317
 723.63;  184.679;  180.576;  168.342; 0.60691; 0.03671
 724.19;  226.359;  222.690;  210.839; 0.53947; 0.03265
 724.76;  204.565;  199.294;  189.063; 0.77932; 0.04721
 725.33;  213.437;  209.332;  199.054; 0.60591; 0.03673
 725.90;  234.435;  228.900;  219.058; 0.81525; 0.04946
 726.46;  215.699;  210.914;  233.585; 0.70758; 0.04296
 727.03;  231.796;  230.558;  315.146; 0.18251; 0.01109
 727.60;  175.746;  171.204;  231.534; 0.67111; 0.04081
 728.17;  218.048;  214.572;  215.136; 0.51424; 0.03130
 728.74;  225.274;  219.480;  209.799; 0.85928; 0.05234
 729.30;  209.406;  204.854;  191.518; 0.67490; 0.04114
 729.87;  208.442;  203.090;  192.096; 0.79205; 0.04832
 730.44;  232.752;  225.510;  216.598; 1.07385; 0.06556
 731.01;  221.962;  219.448;  208.547; 0.37352; 0.02282
 731.57;  206.092;  200.574;  190.066; 0.82072; 0.05018
 732.14;  201.958;  197.870;  186.899; 0.61017; 0.03734
 732.71;  203.294;  203.068;  189.752; 0.03371; 0.00206
 733.28;  243.270;  237.308;  228.133; 0.88760; 0.05440
 733.84;  203.566;  198.608;  185.858; 0.73901; 0.04533
 734.41;  200.206;  194.504;  184.891; 0.85330; 0.05238
 734.98;  223.284;  218.406;  207.761; 0.72648; 0.04463
 735.54;  238.596;  234.098;  221.853; 0.66871; 0.04111
 736.11;  205.000;  200.360;  191.575; 0.69464; 0.04274
 736.68;  199.170;  194.972;  186.264; 0.62896; 0.03873
 737.25;  210.920;  205.674;  210.177; 0.78511; 0.04838
 737.81;  220.356;  215.694;  317.032; 0.70027; 0.04318
 738.38;  214.322;  209.703;  364.691; 0.69448; 0.04286
 738.95;  231.216;  224.689;  282.287; 0.97969; 0.06051
 739.51;  225.472;  221.099;  217.624; 0.66167; 0.04090
 740.08;  218.168;  215.565;  207.208; 0.39418; 0.02438
 740.65;  203.127;  198.615;  188.889; 0.68380; 0.04233
 741.21;  219.477;  216.123;  203.778; 0.50713; 0.03142
 741.78;  222.183;  218.611;  208.168; 0.54223; 0.03362
 742.35;  221.085;  214.655;  203.225; 0.97819; 0.06069
 742.91;  233.937;  229.223;  219.878; 0.71548; 0.04443
 743.48;  218.823;  214.819;  203.324; 0.61325; 0.03811
 744.05;  213.085;  208.949;  196.786; 0.63350; 0.03939
 744.61;  219.413;  214.957;  204.593; 0.68177; 0.04243
 745.18;  201.455;  196.061;  187.125; 0.82832; 0.05159
 745.75;  215.329;  212.163;  201.497; 0.48847; 0.03045
 746.31;  242.735;  241.207;  230.891; 0.23535; 0.01468
 746.88;  213.643;  209.549;  200.522; 0.63419; 0.03959
 747.44;  211.617;  209.579;  201.675; 0.31598; 0.01974
 748.01;  242.497;  237.903;  231.329; 0.71290; 0.04457
 748.58;  222.545;  218.605;  213.293; 0.61232; 0.03831
 749.14;  210.021;  207.779;  226.526; 0.34955; 0.02189
 749.71;  211.819;  206.897;  451.231; 0.77106; 0.04831
 750.28;  220.055;  213.407;  683.607; 1.03670; 0.06501
 750.84;  217.967;  215.461;  549.218; 0.39386; 0.02472
 751.41;  204.403;  202.329;  400.206; 0.32662; 0.02051
 751.97;  216.959;  212.979;  287.792; 0.62539; 0.03930
 752.54;  208.297;  203.619;  213.887; 0.73792; 0.04641
 753.11;  207.049;  202.715;  198.839; 0.68841; 0.04333
 753.67;  216.115;  213.065;  204.969; 0.48542; 0.03058
 754.24;  207.798;  205.483;  196.031; 0.36854; 0.02323
 754.80;  235.050;  231.613;  221.209; 0.55266; 0.03486
 755.37;  194.268;  189.217;  180.823; 0.80976; 0.05112
 755.93;  228.028;  223.817;  215.748; 0.67792; 0.04283
 756.50;  219.736;  216.359;  204.941; 0.54294; 0.03433
 757.07;  225.476;  220.779;  211.182; 0.76008; 0.04809
 757.63;  197.164;  192.859;  183.805; 0.69976; 0.04431
 758.20;  202.176;  198.063;  187.333; 0.67200; 0.04258
 758.76;  208.418;  203.435;  194.976; 0.81680; 0.05180
 759.33;  181.432;  175.777;  168.252; 0.93290; 0.05920
 759.89;  206.508;  203.117;  196.370; 0.55933; 0.03552
 760.46;  209.194;  203.885;  198.611; 0.88168; 0.05604
 761.02;  222.102;  217.905;  212.126; 0.69694; 0.04433
 761.59;  204.116;  200.061;  198.304; 0.67626; 0.04305
 762.15;  219.782;  217.043;  247.196; 0.45946; 0.02927
 762.72;  207.618;  204.811;  649.960; 0.47237; 0.03011
 763.28;  197.606;  192.599; 1239.594; 0.84474; 0.05389
 763.85;  211.064;  207.597;  891.355; 0.58483; 0.03734
 764.41;  214.184;  210.757;  332.429; 0.58441; 0.03734
 764.98;  220.694;  217.591;  229.754; 0.53093; 0.03395
 765.54;  219.790;  213.694;  213.852; 1.04628; 0.06694
 766.11;  213.452;  208.050;  202.867; 0.93071; 0.05959
 766.67;  191.988;  187.672;  178.359; 0.74544; 0.04777
 767.24;  216.120;  211.618;  202.687; 0.77717; 0.04984
 767.80;  204.121;  199.780;  191.715; 0.75390; 0.04838
 768.37;  201.403;  200.134;  189.443; 0.22187; 0.01425
 768.93;  201.215;  198.706;  189.093; 0.44067; 0.02832
 769.50;  210.241;  207.842;  198.465; 0.42345; 0.02723
 770.06;  199.989;  197.974;  190.397; 0.35659; 0.02295
 770.63;  207.137;  203.488;  199.082; 0.64981; 0.04185
 771.19;  204.719;  201.028;  227.151; 0.66056; 0.04258
 771.75;  192.473;  188.930;  467.412; 0.63562; 0.04100
 772.32;  194.105;  189.670;  655.670; 0.80194; 0.05176
 772.88;  210.149;  206.686;  430.088; 0.62639; 0.04046
 773.45;  203.243;  199.416;  224.071; 0.69602; 0.04499
 774.01;  206.825;  203.372;  198.828; 0.63245; 0.04091
 774.58;  203.069;  199.958;  194.013; 0.57251; 0.03706
 775.14;  223.101;  218.686;  209.763; 0.80969; 0.05246
 775.70;  223.395;  219.066;  210.502; 0.80277; 0.05205
 776.27;  215.795;  212.854;  201.405; 0.54881; 0.03561
 776.83;  217.743;  215.154;  204.461; 0.48432; 0.03144
 777.40;  197.865;  193.360;  181.585; 0.84476; 0.05489
 777.96;  199.003;  195.554;  183.867; 0.65132; 0.04235
 778.52;  224.517;  220.266;  207.743; 0.80392; 0.05231
 779.09;  216.971;  211.674;  201.800; 1.01490; 0.06609
 779.65;  218.359;  215.352;  203.406; 0.57850; 0.03770
 780.22;  202.825;  197.650;  187.576; 0.99889; 0.06514
 780.78;  231.427;  227.142;  214.658; 0.83309; 0.05436
 781.34;  231.244;  225.476;  214.646; 1.12241; 0.07330
 781.91;  207.514;  203.162;  191.584; 0.85085; 0.05560
 782.47;  248.812;  243.388;  232.910; 1.06612; 0.06972
 783.03;  227.180;  224.486;  211.398; 0.53239; 0.03484
 783.60;  205.116;  201.806;  191.427; 0.66082; 0.04328
 784.16;  236.678;  231.792;  220.687; 0.97837; 0.06412
 784.72;  208.430;  204.258;  193.537; 0.83781; 0.05495
 785.29;  215.876;  214.250;  201.212; 0.32761; 0.02150
 785.85;  236.600;  233.318;  220.478; 0.66497; 0.04368
 786.41;  220.866;  216.826;  206.244; 0.82321; 0.05411
 786.98;  213.794;  208.304;  197.510; 1.12740; 0.07415
 787.54;  235.260;  231.490;  218.860; 0.77664; 0.05112
 788.10;  210.440;  206.358;  196.332; 0.84971; 0.05597
 788.67;  223.196;  219.332;  210.754; 0.80692; 0.05319
 789.23;  215.708;  211.116;  198.879; 0.96231; 0.06348
 789.79;  227.808;  223.090;  213.134; 0.99377; 0.06560
 790.36;  208.286;  203.100;  191.785; 1.09826; 0.07255
 790.92;  220.768;  218.200;  206.587; 0.54657; 0.03613
 791.48;  209.556;  204.486;  193.516; 1.08824; 0.07199
 792.05;  228.826;  228.266;  218.837; 0.12094; 0.00801
 792.61;  218.750;  214.767;  203.583; 0.85875; 0.05689
 793.17;  223.342;  220.927;  215.509; 0.52673; 0.03492
 793.73;  227.922;  225.275;  244.626; 0.57697; 0.03828
 794.30;  222.170;  218.971;  356.072; 0.70262; 0.04664
 794.86;  235.863;  230.057;  393.666; 1.28317; 0.08525
 795.42;  217.215;  214.745;  263.159; 0.55351; 0.03680
 795.98;  217.125;  214.167;  211.893; 0.66166; 0.04402
 796.55;  207.169;  204.659;  195.486; 0.56520; 0.03763
 797.11;  226.673;  221.823;  212.302; 1.09718; 0.07310
 797.67;  257.271;  255.899;  245.084; 0.31106; 0.02074
 798.23;  198.453;  194.277;  184.555; 0.95858; 0.06395
 798.80;  230.543;  229.079;  218.281; 0.33734; 0.02252
 799.36;  234.485;  231.113;  232.696; 0.77836; 0.05200
 799.92;  226.067;  224.487;  310.328; 0.36614; 0.02448
 800.48;  234.001;  230.619;  413.728; 0.78893; 0.05278
 801.05;  228.117;  224.183;  422.721; 0.92627; 0.06201
 801.61;  226.779;  221.997;  353.586; 1.12477; 0.07536
 802.17;  218.447;  215.327;  244.980; 0.74116; 0.04969
 802.73;  233.969;  228.971;  224.876; 1.19079; 0.07989
 803.29;  201.447;  195.359;  188.525; 1.46046; 0.09805
 803.86;  232.251;  226.327;  216.753; 1.42867; 0.09598
 804.42;  233.943;  231.997;  221.554; 0.47298; 0.03180
 804.98;  250.565;  246.231;  235.995; 1.05991; 0.07131
 805.54;  235.681;  230.313;  220.379; 1.32063; 0.08891
 806.10;  233.263;  228.521;  216.959; 1.16546; 0.07852
 806.66;  265.779;  261.451;  249.895; 1.07108; 0.07221
 807.23;  239.415;  234.697;  223.658; 1.17987; 0.07960
 807.79;  232.163;  227.005;  216.850; 1.30309; 0.08798
 808.35;  240.406;  236.695;  227.824; 0.93364; 0.06308
 808.91;  220.022;  216.365;  212.987; 0.92772; 0.06272
 809.47;  214.150;  208.821;  264.386; 1.36791; 0.09255
 810.03;  225.494;  221.687;  392.351; 0.97994; 0.06634
 810.60;  252.660;  249.705;  507.373; 0.76636; 0.05192
 811.16;  216.422;  212.847;  629.834; 0.92310; 0.06258
 811.72;  252.402;  250.277;  583.026; 0.55031; 0.03733
 812.28;  224.138;  220.665;  305.465; 0.90398; 0.06137
 812.84;  242.578;  238.371;  245.167; 1.09890; 0.07465
 813.40;  254.984;  251.901;  247.112; 0.80787; 0.05492
 813.96;  245.220;  242.405;  235.064; 0.73830; 0.05023
 814.52;  243.646;  238.799;  230.727; 1.27818; 0.08701
 815.09;  231.668;  228.123;  217.536; 0.93232; 0.06351
 815.65;  246.956;  244.085;  230.944; 0.76217; 0.05196
 816.21;  238.452;  234.379;  222.389; 1.07740; 0.07350
 816.77;  241.318;  237.093;  225.660; 1.11634; 0.07621
 817.33;  240.670;  235.975;  222.182; 1.25110; 0.08546
 817.89;  235.686;  232.345;  219.820; 0.89539; 0.06121
 818.45;  269.916;  263.691;  252.643; 1.67593; 0.11464
 819.01;  243.922;  240.751;  231.281; 0.85620; 0.05861
 819.57;  243.306;  236.438;  224.944; 1.87710; 0.12858
 820.13;  239.444;  236.730;  224.373; 0.74318; 0.05094
 820.69;  258.278;  255.234;  243.814; 0.83468; 0.05725
 821.25;  235.282;  232.642;  220.494; 0.73083; 0.05016
 821.82;  226.967;  224.362;  212.805; 0.72864; 0.05005
 822.38;  247.021;  243.294;  231.349; 1.04305; 0.07169
 822.94;  247.771;  242.338;  232.561; 1.52615; 0.10497
 823.50;  244.809;  240.332;  228.708; 1.26739; 0.08723
 824.06;  243.409;  239.300;  230.499; 1.17153; 0.08069
 824.62;  235.651;  231.682;  223.250; 1.14077; 0.07862
 825.18;  269.181;  266.358;  282.566; 0.81299; 0.05607
 825.74;  228.795;  222.986;  403.395; 1.68272; 0.11613
 826.30;  229.523;  224.614;  526.098; 1.43121; 0.09884
 826.86;  231.757;  227.278;  384.641; 1.31158; 0.09064
 827.42;  247.697;  243.880;  267.421; 1.12314; 0.07767
 827.98;  253.921;  248.502;  242.654; 1.59936; 0.11068
 828.54;  240.259;  236.454;  226.714; 1.12953; 0.07822
 829.10;  229.351;  226.520;  216.639; 0.84665; 0.05867
 829.66;  251.491;  248.924;  237.048; 0.76935; 0.05335
 830.22;  232.267;  230.060;  218.789; 0.66607; 0.04622
 830.78;  221.127;  218.268;  205.779; 0.86925; 0.06036
 831.34;  236.569;  234.158;  221.566; 0.73384; 0.05099
 831.90;  249.553;  245.328;  232.594; 1.29833; 0.09027
 832.46;  238.437;  232.726;  222.131; 1.76355; 0.12270
 833.02;  209.301;  206.458;  193.142; 0.87941; 0.06123
 833.58;  244.681;  239.550;  226.969; 1.58856; 0.11067
 834.14;  233.055;  228.966;  217.512; 1.27362; 0.08879
 834.70;  244.299;  239.942;  228.005; 1.35759; 0.09471
 835.25;  211.670;  208.910;  196.137; 0.86342; 0.06027
 835.81;  222.492;  218.248;  206.325; 1.34050; 0.09364
 836.37;  235.402;  230.352;  216.196; 1.60905; 0.11248
 836.93;  246.082;  240.914;  229.202; 1.64565; 0.11511
 837.49;  239.530;  234.932;  224.375; 1.46237; 0.10236
 838.05;  217.780;  213.084;  201.486; 1.50391; 0.10534
 838.61;  226.638;  223.922;  213.059; 0.87252; 0.06115
 839.17;  222.958;  220.854;  211.516; 0.68044; 0.04772
 839.73;  236.236;  232.244;  251.805; 1.29603; 0.09096
 840.29;  243.676;  238.426;  351.164; 1.71256; 0.12027
 840.85;  220.304;  217.114;  347.146; 1.04052; 0.07312
 841.41;  230.320;  228.878;  322.252; 0.47291; 0.03326
 841.97;  230.000;  227.732;  411.688; 0.74738; 0.05259
 842.52;  229.590;  226.088;  414.539; 1.15555; 0.08137
 843.08;  216.918;  213.058;  272.665; 1.28131; 0.09029
 843.64;  222.484;  218.056;  219.877; 1.47319; 0.10387
 844.20;  231.292;  226.886;  219.792; 1.48080; 0.10448
 844.76;  241.360;  236.364;  227.489; 1.68320; 0.11884
 845.32;  196.734;  191.578;  182.083; 1.74105; 0.12301
 845.88;  225.222;  221.040;  212.597; 1.41446; 0.10000
 846.44;  237.272;  232.877;  221.439; 1.49589; 0.10582
 846.99;  250.144;  244.789;  234.014; 1.82414; 0.12913
 847.55;  227.690;  223.905;  211.176; 1.29104; 0.09145
 848.11;  197.550;  195.659;  184.253; 0.65059; 0.04612
 848.67;  225.757;  222.799;  209.677; 1.01777; 0.07219
 849.23;  201.679;  201.057;  187.354; 0.21444; 0.01522
 849.79;  222.849;  220.753;  207.754; 0.72848; 0.05174
 850.34;  230.233;  228.837;  217.249; 0.48477; 0.03445
 850.90;  204.987;  199.169;  198.598; 2.02812; 0.14423
 851.46;  241.447;  235.603;  284.448; 2.03754; 0.14500
 852.02;  242.371;  235.529;  310.051; 2.38169; 0.16960
 852.58;  199.085;  195.285;  226.479; 1.34617; 0.09592
 853.13;  220.777;  215.433;  212.880; 1.89097; 0.13483
 853.69;  222.799;  218.855;  207.591; 1.39945; 0.09985
 854.25;  257.595;  253.543;  240.958; 1.43803; 0.10267
 854.81;  218.141;  214.547;  201.292; 1.28537; 0.09183
 855.37;  220.541;  215.925;  203.110; 1.64584; 0.11766
 855.92;  242.615;  238.473;  225.933; 1.48857; 0.10649
 856.48;  221.713;  218.247;  204.808; 1.24652; 0.08923
 857.04;  244.037;  239.507;  224.937; 1.63260; 0.11694
 857.60;  239.177;  235.047;  221.691; 1.48860; 0.10670
 858.16;  234.253;  229.687;  217.639; 1.65768; 0.11889
 858.71;  245.383;  241.667;  227.251; 1.35292; 0.09710
 859.27;  228.085;  223.541;  210.295; 1.66180; 0.11934
 859.83;  228.459;  222.499;  211.887; 2.18864; 0.15728
 860.39;  224.973;  220.107;  207.988; 1.78919; 0.12866
 860.94;  225.999;  219.995;  208.898; 2.21154; 0.15913
 861.50;  216.347;  213.501;  202.645; 1.05114; 0.07569
 862.06;  233.498;  229.243;  216.264; 1.57577; 0.11353
 862.61;  232.172;  228.491;  216.371; 1.36747; 0.09859
 863.17;  204.480;  201.549;  187.515; 1.09058; 0.07868
 863.73;  239.646;  236.287;  223.272; 1.25577; 0.09065
 864.29;  227.910;  223.505;  211.240; 1.64576; 0.11888
 864.84;  235.378;  232.181;  219.672; 1.20017; 0.08675
 865.40;  236.138;  232.063;  219.038; 1.52962; 0.11064
 865.96;  223.428;  218.251;  208.804; 1.95985; 0.14184
 866.51;  228.054;  223.819;  222.897; 1.60724; 0.11640
 867.07;  238.704;  233.343;  228.737; 2.03008; 0.14712
 867.63;  252.258;  247.267;  236.493; 1.90320; 0.13801
 868.18;  248.568;  242.239;  229.520; 2.40913; 0.17481
 868.74;  248.148;  244.209;  230.043; 1.50134; 0.10901
 869.30;  232.020;  227.683;  213.752; 1.66643; 0.12107
 869.86;  219.490;  214.587;  201.508; 1.88475; 0.13702
 870.41;  256.496;  251.285;  237.917; 1.99897; 0.14542
 870.97;  227.546;  224.277;  209.444; 1.26394; 0.09201
 871.52;  229.832;  224.255;  212.542; 2.17359; 0.15833
 872.08;  252.158;  248.249;  235.584; 1.51219; 0.11022
 872.64;  236.018;  232.265;  218.988; 1.46142; 0.10659
 873.19;  214.222;  208.654;  195.874; 2.16189; 0.15778
 873.75;  224.952;  222.042;  209.072; 1.14022; 0.08327
 874.31;  220.176;  216.748;  203.565; 1.33755; 0.09774
 874.86;  243.804;  238.240;  226.270; 2.15948; 0.15790
 875.42;  255.840;  250.076;  237.359; 2.23668; 0.16365
 875.98;  235.268;  230.108;  218.238; 2.00337; 0.14667
 876.53;  235.162;  231.986;  218.441; 1.23157; 0.09022
 877.09;  250.222;  247.004;  237.172; 1.24183; 0.09103
 877.64;  238.188;  233.620;  219.847; 1.76708; 0.12962
 878.20;  233.926;  229.102;  217.135; 1.86187; 0.13666
 878.76;  248.372;  243.806;  230.433; 1.75497; 0.12889
 879.31;  209.610;  204.808;  191.037; 1.84141; 0.13533
 879.87;  239.434;  236.264;  225.200; 1.21798; 0.08957
 880.42;  235.610;  231.736;  218.426; 1.47670; 0.10866
 880.98;  224.996;  220.970;  206.335; 1.53139; 0.11276
 881.54;  258.902;  253.636;  239.657; 1.99734; 0.14716
 882.09;  235.174;  229.284;  217.616; 2.23270; 0.16460
 882.65;  252.172;  246.920;  233.592; 1.97716; 0.14586
 883.20;  244.886;  241.090;  227.445; 1.43066; 0.10561
 883.76;  245.458;  242.792;  229.491; 1.00118; 0.07395
 884.31;  241.146;  237.688;  222.772; 1.30197; 0.09623
 884.87;  270.676;  265.868;  252.670; 1.81253; 0.13405
 885.42;  233.058;  228.044;  214.634; 1.88961; 0.13984
 885.98;  219.206;  216.898;  203.171; 0.87390; 0.06471
 886.53;  240.006;  235.792;  221.606; 1.59697; 0.11833
 887.09;  250.982;  247.026;  233.277; 1.50869; 0.11186
 887.65;  243.068;  236.930;  227.075; 2.32961; 0.17283
 888.20;  237.640;  233.012;  219.081; 1.78144; 0.13224
 888.76;  234.014;  229.726;  216.553; 1.65511; 0.12294
 889.31;  247.366;  241.024;  227.063; 2.45577; 0.18253
 889.87;  246.824;  242.028;  226.933; 1.87837; 0.13970
 890.42;  234.328;  232.328;  219.404; 0.78810; 0.05865
 890.98;  243.154;  238.966;  224.217; 1.66426; 0.12393
 891.53;  214.982;  210.620;  198.956; 1.74366; 0.12992
 892.09;  251.508;  247.838;  233.343; 1.46984; 0.10959
 892.64;  233.422;  229.858;  217.915; 1.43875; 0.10734
 893.19;  238.546;  233.786;  221.488; 1.93034; 0.14410
 893.75;  222.084;  218.756;  206.559; 1.36210; 0.10175
 894.30;  255.592;  250.460;  236.042; 2.11114; 0.15780
 894.86;  223.756;  219.018;  205.145; 1.96010; 0.14660
 895.41;  260.348;  256.010;  242.484; 1.80316; 0.13494
 895.97;  224.388;  219.004;  207.451; 2.26768; 0.16981
 896.52;  258.874;  252.352;  244.098; 2.74156; 0.20542
 897.08;  243.810;  240.090;  227.097; 1.57227; 0.11788
 897.63;  257.008;  252.160;  242.463; 2.06105; 0.15463
 898.19;  240.876;  237.738;  221.941; 1.33832; 0.10047
 898.74;  260.518;  255.584;  241.964; 2.12071; 0.15930
 899.29;  258.432;  252.986;  241.423; 2.35741; 0.17719
 899.85;  234.902;  231.076;  217.840; 1.65395; 0.12439
 900.40;  240.822;  238.512;  224.623; 1.00742; 0.07581
 900.96;  242.224;  239.880;  224.386; 1.02732; 0.07736
 901.51;  237.618;  234.410;  221.344; 1.41863; 0.10689
 902.06;  244.644;  241.784;  225.298; 1.25844; 0.09488
 902.62;  253.686;  248.562;  235.915; 2.26476; 0.17085
 903.17;  249.260;  247.278;  232.176; 0.87586; 0.06611
 903.73;  251.646;  247.336;  235.707; 1.91005; 0.14427
 904.28;  233.776;  230.438;  216.385; 1.49012; 0.11262
 904.83;  265.516;  262.388;  249.126; 1.40304; 0.10610
 905.39;  219.300;  215.230;  202.872; 1.83371; 0.13876
 905.94;  246.044;  243.438;  229.504; 1.17452; 0.08893
 906.50;  255.014;  250.714;  239.323; 1.95561; 0.14816
 907.05;  236.486;  231.804;  219.363; 2.12949; 0.16144
 907.60;  255.308;  249.746;  236.963; 2.53612; 0.19238
 908.16;  245.172;  240.688;  228.085; 2.05313; 0.15584
 908.71;  247.134;  243.066;  229.913; 1.86429; 0.14159
 909.26;  250.730;  247.116;  233.397; 1.66790; 0.12675
 909.82;  241.924;  238.972;  227.376; 1.35766; 0.10324
 910.37;  247.446;  242.850;  235.399; 2.13462; 0.16242
 910.92;  257.272;  252.374;  281.745; 2.28594; 0.17404
 911.48;  254.488;  249.994;  481.890; 2.09738; 0.15978
 912.03;  228.826;  221.666;  613.633; 3.35185; 0.25550
 912.58;  247.124;  240.992;  476.373; 2.90362; 0.22147
 913.14;  250.704;  245.590;  301.799; 2.41535; 0.18434
 913.69;  271.876;  266.906;  269.488; 2.34423; 0.17902
 914.24;  233.018;  229.388;  222.219; 1.71560; 0.13109
 914.79;  233.430;  229.618;  218.365; 1.80796; 0.13823
 915.35;  250.934;  245.512;  234.392; 2.58491; 0.19775
 915.90;  254.258;  252.040;  240.487; 1.05549; 0.08080
 916.45;  235.806;  231.188;  218.208; 2.21628; 0.16976
 917.01;  252.280;  246.586;  232.894; 2.74747; 0.21057
 917.56;  244.578;  239.766;  227.311; 2.33645; 0.17918
 918.11;  242.980;  239.880;  226.003; 1.50531; 0.11551
 918.66;  239.030;  234.270;  220.789; 2.31594; 0.17782
 919.22;  252.774;  247.654;  236.207; 2.49668; 0.19181
 919.77;  236.064;  233.812;  221.133; 1.09953; 0.08452
 920.32;  242.778;  237.422;  224.244; 2.63685; 0.20282
 920.87;  246.324;  240.742;  232.864; 2.73986; 0.21087
 921.43;  240.122;  235.578;  250.486; 2.25328; 0.17353
 921.98;  227.268;  221.164;  276.799; 3.04763; 0.23484
 922.53;  230.248;  225.448;  271.522; 2.37878; 0.18341
 923.08;  241.754;  238.006;  245.586; 1.86727; 0.14406
 923.64;  242.620;  237.574;  232.794; 2.53165; 0.19543
 924.19;  245.548;  241.404;  231.064; 2.08563; 0.16110
 924.74;  223.228;  218.530;  211.372; 2.37524; 0.18358
 925.29;  274.444;  270.660;  260.667; 1.92040; 0.14851
 925.84;  250.830;  246.068;  234.899; 2.41542; 0.18691
 926.40;  228.966;  225.272;  212.506; 1.87582; 0.14524
 926.95;  232.750;  228.352;  214.402; 2.24487; 0.17392
 927.50;  234.474;  228.570;  216.696; 3.03341; 0.23515
 928.05;  244.604;  240.268;  226.066; 2.23739; 0.17354
 928.60;  228.752;  224.146;  210.903; 2.37881; 0.18462
 929.15;  245.318;  240.442;  228.948; 2.53249; 0.19667
 929.71;  256.616;  251.878;  238.862; 2.47349; 0.19220
 930.26;  235.110;  229.700;  220.145; 2.84901; 0.22151
 930.81;  244.410;  239.128;  226.373; 2.78450; 0.21662
 931.36;  252.944;  248.920;  235.832; 2.12197; 0.16518
 931.91;  260.612;  254.460;  241.662; 3.26670; 0.25444
 932.46;  254.724;  251.168;  237.655; 1.89551; 0.14772
 933.02;  242.722;  236.728;  224.869; 3.20338; 0.24980
 933.57;  228.182;  225.466;  211.497; 1.46244; 0.11411
 934.12;  227.554;  224.870;  212.075; 1.44748; 0.11301
 934.67;  247.968;  243.122;  232.336; 2.64323; 0.20648
 935.22;  239.400;  234.300;  225.680; 2.75881; 0.21564
 935.77;  262.200;  256.934;  247.265; 2.87295; 0.22469
 936.32;  251.184;  245.832;  233.242; 2.92587; 0.22897
 936.87;  251.134;  246.088;  234.404; 2.77485; 0.21728
 937.42;  244.768;  240.034;  230.149; 2.61291; 0.20472
 937.98;  223.914;  221.624;  211.733; 1.28140; 0.10045
 938.53;  239.798;  234.530;  221.566; 2.94078; 0.23068
 939.08;  231.358;  226.444;  213.091; 2.74047; 0.21509
 939.63;  252.792;  249.546;  233.627; 1.82300; 0.14317
 940.18;  261.998;  257.528;  245.398; 2.51689; 0.19777
 940.73;  239.526;  235.894;  224.525; 2.06306; 0.16221
 941.28;  227.692;  221.900;  210.218; 3.29648; 0.25934
 941.83;  234.780;  231.694;  218.300; 1.76614; 0.13903
 942.38;  229.610;  224.382;  212.832; 3.00041; 0.23632
 942.93;  246.508;  240.182;  228.633; 3.64304; 0.28710
 943.48;  245.540;  238.054;  227.078; 4.33752; 0.34203
 944.03;  229.086;  224.320;  210.439; 2.78848; 0.22001
 944.58;  234.430;  229.588;  217.194; 2.82744; 0.22322
 945.13;  228.754;  226.296;  212.387; 1.45576; 0.11499
 945.68;  222.974;  217.594;  206.217; 3.18604; 0.25182
 946.23;  232.458;  226.874;  213.880; 3.31170; 0.26191
 946.79;  232.314;  228.130;  214.171; 2.49943; 0.19778
 947.34;  252.950;  246.146;  232.911; 4.05321; 0.32092
 947.89;  255.890;  251.440;  238.836; 2.67265; 0.21173
 948.44;  234.832;  230.638;  219.284; 2.52779; 0.20037
 948.99;  233.970;  231.428;  216.924; 1.53580; 0.12181
 949.54;  249.688;  245.916;  230.186; 2.30785; 0.18315
 950.09;  231.038;  225.908;  216.219; 3.14660; 0.24986
 950.64;  232.084;  228.834;  213.164; 2.01036; 0.15973
 951.19;  213.798;  208.498;  195.816; 3.28762; 0.26136
 951.73;  205.510;  203.142;  187.208; 1.48543; 0.11816
 952.28;  247.344;  242.222;  230.870; 3.20323; 0.25495
 952.83;  241.960;  238.118;  222.726; 2.40699; 0.19168
 953.38;  260.440;  255.754;  243.581; 2.95249; 0.23526
 953.93;  234.466;  231.414;  216.650; 1.93042; 0.15391
 954.48;  235.312;  232.288;  219.371; 1.92028; 0.15319
 955.03;  242.312;  236.362;  222.641; 3.80759; 0.30392
 955.58;  238.020;  234.296;  220.638; 2.40104; 0.19176
 956.13;  209.324;  204.590;  192.119; 3.05868; 0.24442
 956.68;  220.542;  218.030;  204.813; 1.64082; 0.13120
 957.23;  210.542;  205.990;  190.369; 2.98439; 0.23876
 957.78;  222.740;  217.254;  204.342; 3.61096; 0.28906
 958.33;  202.016;  196.734;  184.908; 3.51177; 0.28128
 958.88;  229.132;  223.722;  214.074; 3.60535; 0.28894
 959.43;  237.936;  234.464;  220.660; 2.32956; 0.18680
 959.98;  224.112;  219.946;  207.110; 2.79614; 0.22434
 960.53;  253.394;  247.988;  235.735; 3.67583; 0.29509
 961.07;  223.832;  219.846;  205.337; 2.71726; 0.21826
 961.62;  268.298;  263.304;  250.070; 3.41526; 0.27449
 962.17;  231.810;  226.942;  213.949; 3.37591; 0.27148
 962.72;  234.986;  231.850;  217.978; 2.18705; 0.17598
 963.27;  237.110;  232.862;  218.272; 2.95152; 0.23762
 963.82;  222.012;  218.226;  207.269; 2.66101; 0.21436
 964.37;  244.912;  241.352;  240.124; 2.52083; 0.20318
 964.92;  227.018;  223.428;  264.450; 2.54655; 0.20537
 965.46;  213.266;  209.560;  280.889; 2.65168; 0.21397
 966.01;  229.642;  223.176;  262.804; 4.63187; 0.37397
 966.56;  239.232;  234.290;  237.515; 3.57248; 0.28860
 967.11;  244.004;  238.232;  227.550; 4.19861; 0.33937
 967.66;  229.194;  224.506;  213.586; 3.44659; 0.27874
 968.21;  225.572;  221.194;  208.194; 3.25105; 0.26308
 968.75;  241.858;  238.292;  224.204; 2.63865; 0.21364
 969.30;  234.702;  229.898;  216.833; 3.60255; 0.29185
 969.85;  252.840;  249.276;  233.361; 2.67472; 0.21681
 970.40;  240.498;  235.284;  220.821; 3.95303; 0.32061
 970.95;  245.846;  240.344;  226.071; 4.18322; 0.33947
 971.50;  242.436;  236.238;  223.994; 4.75999; 0.38649
 972.04;  242.780;  239.344;  225.460; 2.64623; 0.21498
 972.59;  251.554;  245.646;  233.089; 4.60666; 0.37446
 973.14;  245.664;  240.642;  226.225; 3.93494; 0.32004
 973.69;  251.262;  248.838;  235.642; 1.90844; 0.15531
 974.24;  237.112;  234.914;  220.206; 1.73810; 0.14152
 974.78;  234.058;  230.724;  215.873; 2.66612; 0.21721
 975.33;  263.916;  258.798;  245.834; 4.10995; 0.33503
 975.88;  248.826;  243.380;  229.422; 4.42269; 0.36072
 976.43;  244.706;  239.558;  227.200; 4.22293; 0.34463
 976.97;  238.188;  234.610;  220.970; 2.92962; 0.23921
 977.52;  225.838;  224.698;  212.176; 0.94399; 0.07712
 978.07;  275.654;  271.484;  261.140; 3.46510; 0.28326
 978.62;  261.890;  258.282;  249.999; 3.01186; 0.24634
 979.16;  259.506;  253.904;  245.899; 4.73957; 0.38787
 979.71;  229.732;  224.762;  211.338; 4.21240; 0.34492
 980.26;  249.032;  244.800;  233.353; 3.63427; 0.29775
 980.81;  249.746;  245.312;  230.718; 3.80603; 0.31200
 981.35;  272.340;  267.620;  254.809; 4.09562; 0.33592
 981.90;  261.824;  257.210;  241.517; 4.05854; 0.33307
 982.45;  257.064;  252.556;  240.405; 3.98164; 0.32694
 982.99;  261.024;  257.574;  242.664; 3.07043; 0.25226
 983.54;  258.068;  254.058;  239.293; 3.60077; 0.29599
 984.09;  250.062;  244.496;  231.355; 5.02201; 0.41305
 984.63;  247.108;  241.502;  228.448; 5.10780; 0.42034
 985.18;  259.996;  255.760;  242.377; 3.86921; 0.31859
 985.73;  254.826;  251.302;  235.860; 3.25842; 0.26845
 986.27;  242.594;  239.520;  224.967; 2.85022; 0.23495
 986.82;  250.694;  247.350;  233.190; 3.12851; 0.25803
 987.37;  264.290;  260.144;  246.808; 3.91873; 0.32338
 987.91;  255.926;  252.038;  236.652; 3.69856; 0.30538
 988.46;  264.772;  259.606;  247.721; 4.95007; 0.40895
 989.01;  257.860;  254.104;  237.572; 3.62475; 0.29962
 989.55;  258.140;  253.342;  241.214; 4.69165; 0.38802
 990.10;  267.240;  263.286;  248.030; 3.88244; 0.32128
 990.65;  283.062;  278.376;  262.831; 4.66041; 0.38587
 991.19;  252.600;  249.162;  236.217; 3.43789; 0.28480
 991.74;  274.326;  269.034;  254.016; 5.28569; 0.43812
 992.29;  262.970;  257.546;  243.190; 5.48709; 0.45506
 992.83;  273.628;  269.036;  254.085; 4.70126; 0.39011
 993.38;  266.632;  264.114;  247.359; 2.57053; 0.21342
 993.92;  246.700;  241.934;  226.472; 4.95943; 0.41198
 994.47;  235.750;  231.804;  216.807; 4.13731; 0.34388
 995.02;  253.928;  249.866;  236.735; 4.28087; 0.35601
 995.56;  274.028;  270.780;  256.692; 3.46507; 0.28832
 996.11;  263.078;  260.256;  246.882; 3.02229; 0.25162
 996.65;  265.264;  262.232;  247.876; 3.28151; 0.27335
 997.20;  259.740;  255.966;  240.294; 4.14363; 0.34535
 997.75;  258.668;  254.134;  239.437; 5.01570; 0.41826
 998.29;  232.670;  230.610;  216.133; 2.30085; 0.19197
 998.84;  264.438;  258.390;  245.329; 6.82465; 0.56973
 999.38;  263.496;  260.602;  244.812; 3.28457; 0.27435
 999.93;  279.292;  277.478;  261.675; 2.08059; 0.17388
1000.47;  275.298;  273.044;  260.831; 2.59840; 0.21727
1001.02;  271.574;  268.500;  253.386; 3.60948; 0.30198
1001.56;  261.042;  254.700;  239.780; 7.46146; 0.62459
1002.11;  249.264;  246.148;  230.445; 3.72784; 0.31222
1002.65;  240.770;  237.264;  223.243; 4.20884; 0.35270
1003.20;  249.064;  246.120;  231.881; 3.57057; 0.29938
1003.75;  283.478;  278.672;  266.036; 5.90552; 0.49542
1004.29;  250.604;  248.106;  233.303; 3.07980; 0.25851
1004.84;  238.508;  233.178;  220.546; 6.62385; 0.55629
1005.38;  243.206;  237.316;  222.859; 7.43877; 0.62507
1005.93;  259.718;  255.640;  241.364; 5.16827; 0.43451
1006.47;  239.466;  235.420;  220.692; 5.22788; 0.43976
1007.02;  246.260;  239.784;  227.662; 8.44044; 0.71039
1007.56;  261.704;  257.922;  242.798; 4.95533; 0.41729
1008.11;  267.792;  262.660;  249.411; 6.76440; 0.56994
1008.65;  227.124;  222.318;  207.079; 6.43798; 0.54273
1009.19;  252.864;  248.174;  236.390; 6.33631; 0.53445
1009.74;  249.814;  244.558;  231.223; 7.20855; 0.60835
1010.28;  251.914;  246.846;  234.215; 6.99895; 0.59098
1010.83;  262.758;  256.796;  242.437; 8.36107; 0.70637
1011.37;  253.736;  248.920;  235.037; 6.82013; 0.57650
1011.92;  253.046;  248.088;  235.208; 7.06373; 0.59741
1012.46;  246.556;  243.278;  230.410; 4.71000; 0.39856
1013.01;  280.490;  275.518;  282.128; 7.24603; 0.61349
1013.55;  249.842;  248.242;  261.377; 2.32079; 0.19660
1014.09;  246.114;  242.904;  247.080; 4.73363; 0.40121
1014.64;  243.304;  239.140;  235.199; 6.24576; 0.52965
1015.18;  242.554;  237.544;  226.875; 7.50676; 0.63693
1015.73;  237.218;  233.712;  221.345; 5.36416; 0.45538
1016.27;  260.018;  254.334;  239.850; 8.73614; 0.74203
1016.82;  251.904;  247.718;  232.899; 6.42574; 0.54608
1017.36;  242.960;  239.060;  224.463; 6.09296; 0.51808
1017.90;  231.662;  227.194;  214.821; 6.99877; 0.59542
1018.45;  228.738;  222.886;  209.010; 9.27312; 0.78933
1018.99;  226.802;  225.508;  213.271; 2.07996; 0.17714
1019.53;  218.374;  215.518;  199.948; 4.64416; 0.39573
1020.08;  244.502;  239.888;  227.485; 7.57571; 0.64588
1020.62;  246.428;  243.754;  229.827; 4.47561; 0.38178
1021.17;  251.048;  246.112;  232.392; 8.41625; 0.71830
1021.71;  249.958;  244.922;  232.866; 8.74359; 0.74664
1022.25;  258.498;  252.864;  239.904; 9.91458; 0.84708
1022.80;  232.418;  227.946;  214.907; 8.01263; 0.68495
1023.34;  231.190;  225.982;  211.512; 9.43007; 0.80654
1023.88;  244.580;  240.410;  224.103; 7.70155; 0.65906
1024.43;  247.326;  242.370;  229.391; 9.20103; 0.78779
1024.97;  251.626;  246.034;  233.233;10.54433; 0.90328
1025.51;  231.100;  225.702;  213.395;10.30259; 0.88304
1026.06;  246.626;  243.078;  227.836; 6.85587; 0.58793
1026.60;  251.090;  246.806;  233.723; 8.39614; 0.72040
1027.14;  262.832;  259.498;  244.366; 6.62675; 0.56889
1027.69;  252.544;  248.716;  232.097; 7.82638; 0.67223
1028.23;  247.282;  241.786;  228.253;11.26195; 0.96782
1028.77;  226.714;  224.746;  212.300; 4.04225; 0.34756
1029.31;  244.486;  239.632;  224.128;10.19929; 0.87743
1029.86;  234.824;  231.316;  216.083; 7.40801; 0.63763
1030.40;  280.574;  276.636;  262.077; 8.49218; 0.73134
1030.94;  251.118;  248.220;  232.446; 6.33194; 0.54559
1031.48;  259.840;  255.888;  240.883; 8.68471; 0.74871
1032.03;  247.876;  242.974;  227.501;10.98297; 0.94734
1032.57;  248.922;  245.110;  229.752; 8.59706; 0.74193
1033.11;  242.358;  238.750;  224.720; 8.25712; 0.71297
1033.65;  236.704;  230.494;  213.877;14.54335; 1.25642
1034.20;  255.178;  249.338;  235.433;13.73883; 1.18754
1034.74;  251.390;  247.518;  231.019; 9.26692; 0.80142
1035.28;  251.596;  245.496;  231.832;14.91863; 1.29087
1035.82;  227.786;  223.766;  209.377; 9.84750; 0.85252
1036.37;  241.152;  237.020;  221.872;10.31767; 0.89369
1036.91;  266.064;  260.400;  248.405;14.29498; 1.23885
1037.45;  255.380;  252.992;  237.398; 6.17121; 0.53510
1037.99;  245.956;  242.892;  227.965; 7.98713; 0.69291
1038.53;  245.656;  242.900;  229.202; 7.29563; 0.63325
1039.08;  236.128;  230.824;  217.129;14.22356; 1.23524
1039.62;  234.038;  230.226;  215.711;10.40525; 0.90411
1040.16;  239.280;  235.180;  220.940;11.18844; 0.97267
1040.70;  246.542;  241.732;  226.788;13.59349; 1.18236
1041.24;  261.826;  257.344;  243.321;12.91457; 1.12390
1041.79;  237.226;  231.410;  217.096;16.70437; 1.45446
1042.33;  244.000;  240.182;  223.935;11.17756; 0.97374
1042.87;  235.872;  230.984;  216.620;14.53350; 1.26676
1043.41;  241.820;  239.320;  221.794; 7.62992; 0.66538
1043.95;  256.042;  249.198;  234.674;20.96057; 1.82885
1044.49;  220.976;  216.198;  204.268;14.92080; 1.30254
1045.04;  253.070;  248.830;  234.685;13.40049; 1.17043
1045.58;  245.812;  240.640;  225.050;16.55597; 1.44679
1046.12;  270.236;  267.088;  256.429;10.16912; 0.88911
1046.66;  255.664;  250.240;  239.465;17.90857; 1.56661
1047.20;  236.184;  233.858;  220.647; 7.76880; 0.67995
1047.74;  273.984;  269.580;  252.264;14.91239; 1.30586
1048.28;  248.998;  247.858;  234.715; 3.88972; 0.34079
1048.82;  269.836;  264.076;  249.899;20.20917; 1.77152
1049.36;  271.046;  268.210;  252.537;10.02393; 0.87914
1049.91;  259.584;  255.856;  240.839;13.37462; 1.17361
1050.45;  252.012;  247.596;  233.443;16.19071; 1.42146
1050.99;  271.572;  267.468;  253.565;15.26292; 1.34069
1051.53;  277.522;  272.998;  258.198;17.11045; 1.50375
1052.07;  250.284;  246.936;  231.546;12.76779; 1.12267
1052.61;  249.990;  249.548;  231.951; 1.71812; 0.15115
1053.15;  260.088;  257.070;  242.976;11.83868; 1.04205
1053.69;  254.198;  249.790;  236.380;17.47993; 1.53938
1054.23;  258.538;  255.562;  241.171;12.18146; 1.07332
1054.77;  275.334;  269.968;  255.399;22.26867; 1.96312
1055.31;  258.658;  254.734;  239.084;16.50374; 1.45565
1055.85;  250.706;  245.812;  232.209;20.72965; 1.82932
1056.39;  250.496;  246.866;  231.936;15.64706; 1.38150
1056.93;  257.394;  253.358;  240.459;17.78586; 1.57115
1057.47;  269.002;  266.214;  250.912;12.28321; 1.08561
1058.01;  266.300;  262.518;  248.715;17.11107; 1.51308
1058.55;  261.650;  258.206;  246.950;16.02991; 1.41820
1059.09;  263.544;  260.550;  246.105;14.14087; 1.25171
1059.63;  272.880;  267.892;  252.957;24.00744; 2.12616
1060.17;  283.610;  280.858;  266.822;13.33977; 1.18201
1060.71;  249.856;  246.534;  231.876;16.21502; 1.43751
1061.25;  262.414;  258.918;  243.753;17.36495; 1.54023
1061.79;  261.614;  256.866;  243.820;24.26349; 2.15322
1062.33;  254.884;  250.348;  237.818;23.53870; 2.08996
1062.87;  287.310;  281.650;  267.178;29.72401; 2.64048
1063.41;  266.302;  261.278;  245.913;27.33323; 2.42933
1063.95;  271.924;  267.220;  253.445;25.56709; 2.27351
1064.49;  253.034;  248.204;  236.618;26.57478; 2.36432
1065.03;  309.734;  306.752;  291.184;16.62834; 1.48015
1065.57;  284.310;  279.330;  263.442;28.84434; 2.56884
1066.11;  263.852;  260.474;  245.700;19.99336; 1.78149
1066.65;  262.478;  257.862;  242.225;27.16654; 2.42187
1067.19;  277.388;  273.988;  258.730;20.33034; 1.81334
1067.73;  285.752;  282.718;  267.504;18.44206; 1.64575
1068.27;  253.530;  250.394;  236.573;19.21493; 1.71559
1068.81;  260.148;  258.104;  242.997;12.84762; 1.14767
1069.35;  286.352;  282.446;  267.481;24.33851; 2.17524
1069.89;  253.616;  247.720;  234.383;37.14907; 3.32184
1070.43;  277.808;  273.648;  259.943;27.23275; 2.43636
1070.96;  274.562;  270.360;  254.939;27.42156; 2.45449
1071.50;  272.712;  269.682;  253.966;20.04441; 1.79507
1072.04;  269.024;  266.368;  249.432;17.45830; 1.56426
1072.58;  274.020;  271.480;  255.917;17.12225; 1.53492
1073.12;  282.334;  280.586;  266.714;12.16088; 1.09070
1073.66;  256.052;  252.652;  237.410;23.66558; 2.12362
1074.20;  259.208;  256.398;  248.196;19.61083; 1.76065
1074.74;  272.772;  268.440;  253.551;30.98384; 2.78311
1075.27;  259.112;  254.912;  243.897;29.82105; 2.68001
1075.81;  262.796;  256.892;  243.029;43.03407; 3.86939
1076.35;  267.136;  265.686;  249.120;10.78159; 0.96991
1076.89;  270.160;  266.802;  251.325;25.67682; 2.31103
1077.43;  288.666;  283.162;  267.999;42.42149; 3.82004
1077.97;  275.602;  271.274;  256.720;33.96420; 3.05999
1078.50;  270.564;  265.878;  252.985;35.47167; 3.19740
1079.04;  262.062;  258.402;  242.128;28.96527; 2.61222
1079.58;  267.848;  264.592;  249.444;26.58295; 2.39857
1080.12;  264.372;  259.472;  245.012;40.41750; 3.64867
1080.66;  278.680;  273.180;  260.419;46.44104; 4.19453
1081.20;  255.164;  251.436;  239.541;31.41350; 2.83867
1081.73;  252.766;  247.878;  233.654;41.07854; 3.71389
1082.27;  272.588;  268.220;  252.998;36.97919; 3.34493
1082.81;  272.618;  270.046;  257.378;22.11251; 2.00117
1083.35;  268.920;  264.674;  248.599;38.13685; 3.45308
1083.88;  267.712;  263.816;  248.179;35.15785; 3.18493
1084.42;  279.794;  278.852;  265.394; 8.46262; 0.76700
1084.96;  259.390;  255.552;  241.314;34.56202; 3.13406
1085.50;  269.812;  266.052;  249.738;35.08143; 3.18273
1086.04;  265.176;  261.406;  246.985;35.50319; 3.22259
1086.57;  291.270;  287.658;  271.691;34.11538; 3.09815
1087.11;  268.804;  265.916;  249.705;27.57650; 2.50557
1087.65;  258.992;  257.090;  240.281;18.51540; 1.68312
1088.19;  284.100;  280.006;  264.683;40.42444; 3.67655
1088.72;  266.656;  261.694;  249.220;50.66638; 4.61032
1089.26;  258.526;  255.850;  240.830;27.63392; 2.51575
1089.80;  252.742;  250.232;  235.334;26.24029; 2.39006
1090.33;  289.604;  285.048;  273.528;46.40225; 4.22856
1090.87;  247.384;  244.808;  227.543;27.13789; 2.47425
1091.41;  249.874;  247.878;  233.488;22.10651; 2.01651
1091.95;  269.256;  265.970;  250.943;35.14757; 3.20767
1092.48;  280.482;  278.078;  263.655;26.41536; 2.41193
1093.02;  253.464;  249.224;  235.415;47.43192; 4.33304
1093.56;  273.370;  269.158;  254.412;47.53122; 4.34424
1094.09;  247.948;  244.508;  229.661;39.32859; 3.59630
1094.63;  247.966;  244.594;  230.537;38.54120; 3.52603
1095.17;  255.170;  251.004;  236.861;49.65474; 4.54501
1095.70;  268.644;  266.560;  250.037;24.98615; 2.28816
1096.24;  257.380;  252.678;  237.502;57.06470; 5.22838
1096.78;  254.050;  250.382;  234.609;45.08368; 4.13267
1097.31;  256.188;  251.512;  237.279;59.43381; 5.45077
1097.85;  261.786;  260.126;  243.933;20.68010; 1.89753
1098.39;  247.600;  244.714;  227.157;37.17840; 3.41302
1098.92;  260.264;  256.796;  243.537;45.08937; 4.14128
1099.46;  267.164;  263.460;  249.128;49.07875; 4.50989
1099.99;  259.998;  253.648;  239.172;82.68918; 7.60209
1100.53;  263.856;  259.342;  244.501;61.85120; 5.68911

